{
  "AcquisitionMatrixPE": 104,
  "AcquisitionNumber": 1,
  "AcquisitionTime": "16:29:5.220000",
  "BandwidthPerPixelPhaseEncode": 17.17,
  "BaseResolution": 104,
  "BodyPartExamined": "BRAIN",
  "CoilCombinationMethod": "Sum of Squares",
  "ConsistencyInfo": "N4_VE11C_LATEST_20160120",
  "ConversionSoftware": "dcm2niix",
  "ConversionSoftwareVersion": "v1.0.20220505",
  "DerivedVendorReportedEchoSpacing": 0.000560011,
  "DeviceSerialNumber": "167006",
  "DwellTime": 2.1e-06,
  "EchoTime": 0.037,
  "EchoTime1": 0.037,
  "EchoTime2": 0.001,
  "EchoTrainLength": 104,
  "EffectiveEchoSpacing": 0.000560011,
  "FlipAngle": 52,
  "HeudiconvVersion": "0.5.3.post811+g6206e14",
  "ImageComments": "Unaliased MB4/PE3/LB",
  "ImageOrientationPatientDICOM": [0.999261, -0.0333538, 0.0191044, 0.0378637, 0.939719, -0.339846],
  "ImageOrientationText": "Tra>Cor(-19.9)>Sag(0.4)",
  "ImageType": [
    "ORIGINAL",
    "PRIMARY",
    "P",
    "MB",
    "ND",
    "MOSAIC",
    "PHASE"
],
  "ImagingFrequency": 123.259,
  "InPlanePhaseEncodingDirectionDICOM": "COL",
  "InstitutionAddress": "Chemin Queen-Mary 4565,Montreal,District,CA,H3W 1W5",
  "InstitutionName": "IUGM",
  "InstitutionalDepartmentName": "Department",
  "MRAcquisitionType": "2D",
  "MagneticFieldStrength": 3,
  "Manufacturer": "Siemens",
  "ManufacturersModelName": "Prisma_fit",
  "MatrixCoilMode": "SENSE",
  "Modality": "MR",
  "MultibandAccelerationFactor": 4,
  "PartialFourier": 1,
  "PatientPosition": "HFS",
  "PercentPhaseFOV": 100,
  "PercentSampling": 100,
  "PhaseEncodingDirection": "j",
  "PhaseEncodingSteps": 104,
  "PhaseResolution": 1,
  "PixelBandwidth": 2290,
  "ProcedureStepDescription": "games^mario3",
  "ProtocolName": "func_task-mario3_run-03",
  "PulseSequenceDetails": "%CustomerSeq%\\cmrr_mbep2d_bold",
  "ReceiveCoilActiveElements": "HC1-7;NC1,2",
  "ReceiveCoilName": "HeadNeck_64",
  "ReconMatrixPE": 104,
  "RepetitionTime": 1.49,
  "SAR": 0.055255,
  "ScanOptions": "FS",
  "ScanningSequence": "EP",
  "SequenceName": "epfid2d1_104",
  "SequenceVariant": "SK\\SS",
  "SeriesDescription": "func_task-mario3_run-03",
  "SeriesNumber": 17,
  "ShimSetting": [589, -7288, -8814, 517, 42, -287, -163, 57],
  "SliceThickness": 2,
  "SliceTiming": [0, 0.7825, 0.0975, 0.88, 0.195, 0.98, 0.2925, 1.0775, 0.39, 1.175, 0.49, 1.2725, 0.5875, 1.37, 0.685, 0, 0.7825, 0.0975, 0.88, 0.195, 0.98, 0.2925, 1.0775, 0.39, 1.175, 0.49, 1.2725, 0.5875, 1.37, 0.685, 0, 0.7825, 0.0975, 0.88, 0.195, 0.98, 0.2925, 1.0775, 0.39, 1.175, 0.49, 1.2725, 0.5875, 1.37, 0.685, 0, 0.7825, 0.0975, 0.88, 0.195, 0.98, 0.2925, 1.0775, 0.39, 1.175, 0.49, 1.2725, 0.5875, 1.37, 0.685],
  "SoftwareVersions": "syngo MR E11",
  "SpacingBetweenSlices": 2,
  "StationName": "MRC35049",
  "TaskName": "mario3",
  "TotalReadoutTime": 0.0576811,
  "TxRefAmp": 241.173,
  "WipMemBlock": "981c642b-80bf-49ef-bd3d-faf02de93db9||Sequence: R017 ve11c/master r/75a17815+; Jun 28 2022 16:32:11 by eja",
  "dcmmeta_affine": [
    [-1.9985220432281494, 0.07572740316390991, 0.013235163874924183, 103.80171966552734],
    [0.06670759618282318, 1.8794374465942383, -0.6806355714797974, -68.4758071899414],
    [0.03820871561765671, 0.6796911358833313, 1.8805744647979736, -64.08352661132812],
    [0.0, 0.0, 0.0, 1.0]
],
  "dcmmeta_reorient_transform": [
    [0.0, -1.0, 0.0, 103.0],
    [1.0, 0.0, 0.0, 0.0],
    [0.0, 0.0, 1.0, 0.0],
    [0.0, 0.0, 0.0, 1.0]
],
  "dcmmeta_shape": [104, 104, 60, 345],
  "dcmmeta_slice_dim": 2,
  "dcmmeta_version": 0.6,
  "global": {
    "const": {
      "AcquisitionMatrix": [104, 0, 0, 104],
      "AngioFlag": "N",
      "BitsAllocated": 16,
      "BitsStored": 16,
      "BodyPartExamined": "BRAIN",
      "Columns": 832,
      "EchoNumbers": 1,
      "EchoTime": 37.0,
      "EchoTrainLength": 104,
      "FlipAngle": 52.0,
      "HighBit": 15,
      "ImageOrientationPatient": [0.99926100074527, -0.0333537991531, 0.01910435739891, 0.03786370292548, 0.93971874922521, -0.3398455713341],
      "ImagePositionPatient": [-866.62842675767, -784.93993777643, 239.4242673561],
      "ImageType": [
        "ORIGINAL",
        "PRIMARY",
        "P",
        "MB",
        "ND",
        "MOSAIC"
],
      "ImagedNucleus": "1H",
      "ImagingFrequency": 123.259054,
      "InPlanePhaseEncodingDirection": "COL",
      "LargestImagePixelValue": 4095,
      "MRAcquisitionType": "2D",
      "MagneticFieldStrength": 3.0,
      "Manufacturer": "SIEMENS",
      "ManufacturerModelName": "Prisma_fit",
      "Modality": "MR",
      "NumberOfAverages": 1.0,
      "NumberOfPhaseEncodingSteps": 104,
      "PercentPhaseFieldOfView": 100.0,
      "PercentSampling": 100.0,
      "PerformedProcedureStepStartTime": "155737.296000",
      "PhotometricInterpretation": "MONOCHROME2",
      "PixelBandwidth": 2290.0,
      "PixelRepresentation": 0,
      "PixelSpacing": [2.0, 2.0],
      "ProtocolName": "func_task-mario3_run-03",
      "RepetitionTime": 1490.0,
      "RescaleIntercept": -4096.0,
      "RescaleSlope": 2.0,
      "RescaleType": "US",
      "Rows": 832,
      "SAR": 0.05525499147013,
      "SamplesPerPixel": 1,
      "ScanOptions": "FS",
      "ScanningSequence": "EP",
      "SequenceName": "epfid2d1_104",
      "SequenceVariant": [
        "SK",
        "SS"
],
      "SeriesDescription": "func_task-mario3_run-03",
      "SeriesNumber": 17,
      "SeriesTime": "163017.460000",
      "SliceLocation": -36.266465250793,
      "SliceThickness": 2.0,
      "SmallestImagePixelValue": 0,
      "SoftwareVersions": "syngo MR E11",
      "SpacingBetweenSlices": 2.0000000438609,
      "SpecificCharacterSet": "ISO_IR 100",
      "StudyID": "1",
      "StudyTime": "155737.223000",
      "TransmitCoilName": "Body",
      "VariableFlipAngleFlag": "N",
      "WindowCenterWidthExplanation": "Algo1",
      "dBdt": 0.0},
    "slices": {}
  },
  "time": {
    "samples": {
      "AcquisitionNumber": [1, 2, 3, 4, 5, 6, 7, 8, 9, 10, 11, 12, 13, 14, 15, 16, 17, 18, 19, 20, 21, 22, 23, 24, 25, 26, 27, 28, 29, 30, 31, 32, 33, 34, 35, 36, 37, 38, 39, 40, 41, 42, 43, 44, 45, 46, 47, 48, 49, 50, 51, 52, 53, 54, 55, 56, 57, 58, 59, 60, 61, 62, 63, 64, 65, 66, 67, 68, 69, 70, 71, 72, 73, 74, 75, 76, 77, 78, 79, 80, 81, 82, 83, 84, 85, 86, 87, 88, 89, 90, 91, 92, 93, 94, 95, 96, 97, 98, 99, 100, 101, 102, 103, 104, 105, 106, 107, 108, 109, 110, 111, 112, 113, 114, 115, 116, 117, 118, 119, 120, 121, 122, 123, 124, 125, 126, 127, 128, 129, 130, 131, 132, 133, 134, 135, 136, 137, 138, 139, 140, 141, 142, 143, 144, 145, 146, 147, 148, 149, 150, 151, 152, 153, 154, 155, 156, 157, 158, 159, 160, 161, 162, 163, 164, 165, 166, 167, 168, 169, 170, 171, 172, 173, 174, 175, 176, 177, 178, 179, 180, 181, 182, 183, 184, 185, 186, 187, 188, 189, 190, 191, 192, 193, 194, 195, 196, 197, 198, 199, 200, 201, 202, 203, 204, 205, 206, 207, 208, 209, 210, 211, 212, 213, 214, 215, 216, 217, 218, 219, 220, 221, 222, 223, 224, 225, 226, 227, 228, 229, 230, 231, 232, 233, 234, 235, 236, 237, 238, 239, 240, 241, 242, 243, 244, 245, 246, 247, 248, 249, 250, 251, 252, 253, 254, 255, 256, 257, 258, 259, 260, 261, 262, 263, 264, 265, 266, 267, 268, 269, 270, 271, 272, 273, 274, 275, 276, 277, 278, 279, 280, 281, 282, 283, 284, 285, 286, 287, 288, 289, 290, 291, 292, 293, 294, 295, 296, 297, 298, 299, 300, 301, 302, 303, 304, 305, 306, 307, 308, 309, 310, 311, 312, 313, 314, 315, 316, 317, 318, 319, 320, 321, 322, 323, 324, 325, 326, 327, 328, 329, 330, 331, 332, 333, 334, 335, 336, 337, 338, 339, 340, 341, 342, 343, 344, 345],
      "AcquisitionTime": ["162905.220000", "162906.710000", "162908.200000", "162909.690000", "162911.180000", "162912.670000", "162914.160000", "162915.650000", "162917.140000", "162918.630000", "162920.120000", "162921.610000", "162923.100000", "162924.590000", "162926.080000", "162927.570000", "162929.060000", "162930.550000", "162932.040000", "162933.530000", "162935.020000", "162936.510000", "162938.000000", "162939.490000", "162940.980000", "162942.470000", "162943.960000", "162945.450000", "162946.940000", "162948.430000", "162949.920000", "162951.410000", "162952.900000", "162954.390000", "162955.880000", "162957.370000", "162958.860000", "163000.350000", "163001.840000", "163003.330000", "163004.820000", "163006.310000", "163007.800000", "163009.290000", "163010.780000", "163012.270000", "163013.760000", "163015.250000", "163016.740000", "163018.230000", "163019.720000", "163021.210000", "163022.700000", "163024.190000", "163025.680000", "163027.170000", "163028.660000", "163030.150000", "163031.640000", "163033.130000", "163034.620000", "163036.110000", "163037.600000", "163039.090000", "163040.580000", "163042.070000", "163043.560000", "163045.050000", "163046.540000", "163048.030000", "163049.520000", "163051.010000", "163052.500000", "163053.990000", "163055.480000", "163056.970000", "163058.460000", "163059.950000", "163101.440000", "163102.930000", "163104.420000", "163105.910000", "163107.400000", "163108.890000", "163110.380000", "163111.870000", "163113.360000", "163114.850000", "163116.340000", "163117.830000", "163119.320000", "163120.810000", "163122.300000", "163123.790000", "163125.280000", "163126.770000", "163128.260000", "163129.750000", "163131.240000", "163132.730000", "163134.220000", "163135.710000", "163137.200000", "163138.690000", "163140.180000", "163141.670000", "163143.160000", "163144.650000", "163146.140000", "163147.630000", "163149.120000", "163150.610000", "163152.100000", "163153.590000", "163155.080000", "163156.570000", "163158.060000", "163159.550000", "163201.040000", "163202.530000", "163204.020000", "163205.510000", "163207.000000", "163208.490000", "163209.980000", "163211.470000", "163212.960000", "163214.450000", "163215.940000", "163217.430000", "163218.920000", "163220.410000", "163221.900000", "163223.390000", "163224.880000", "163226.370000", "163227.860000", "163229.350000", "163230.840000", "163232.330000", "163233.820000", "163235.310000", "163236.800000", "163238.290000", "163239.780000", "163241.270000", "163242.760000", "163244.250000", "163245.740000", "163247.230000", "163248.720000", "163250.210000", "163251.700000", "163253.190000", "163254.680000", "163256.170000", "163257.660000", "163259.150000", "163300.640000", "163302.130000", "163303.620000", "163305.110000", "163306.600000", "163308.090000", "163309.580000", "163311.070000", "163312.560000", "163314.050000", "163315.540000", "163317.030000", "163318.520000", "163320.010000", "163321.500000", "163322.990000", "163324.480000", "163325.970000", "163327.460000", "163328.950000", "163330.440000", "163331.930000", "163333.420000", "163334.910000", "163336.400000", "163337.890000", "163339.380000", "163340.870000", "163342.360000", "163343.850000", "163345.340000", "163346.830000", "163348.320000", "163349.810000", "163351.300000", "163352.790000", "163354.280000", "163355.770000", "163357.260000", "163358.750000", "163400.240000", "163401.730000", "163403.220000", "163404.710000", "163406.200000", "163407.690000", "163409.180000", "163410.670000", "163412.160000", "163413.650000", "163415.140000", "163416.630000", "163418.120000", "163419.610000", "163421.100000", "163422.590000", "163424.080000", "163425.570000", "163427.060000", "163428.550000", "163430.040000", "163431.530000", "163433.020000", "163434.510000", "163436.000000", "163437.490000", "163438.980000", "163440.470000", "163441.960000", "163443.450000", "163444.940000", "163446.430000", "163447.920000", "163449.410000", "163450.900000", "163452.390000", "163453.880000", "163455.370000", "163456.860000", "163458.350000", "163459.840000", "163501.330000", "163502.820000", "163504.310000", "163505.800000", "163507.290000", "163508.780000", "163510.270000", "163511.760000", "163513.250000", "163514.740000", "163516.230000", "163517.720000", "163519.210000", "163520.700000", "163522.190000", "163523.680000", "163525.170000", "163526.660000", "163528.150000", "163529.640000", "163531.130000", "163532.620000", "163534.110000", "163535.600000", "163537.090000", "163538.580000", "163540.070000", "163541.560000", "163543.050000", "163544.540000", "163546.030000", "163547.520000", "163549.010000", "163550.500000", "163551.990000", "163553.480000", "163554.970000", "163556.460000", "163557.950000", "163559.440000", "163600.930000", "163602.420000", "163603.910000", "163605.400000", "163606.890000", "163608.380000", "163609.870000", "163611.360000", "163612.850000", "163614.340000", "163615.830000", "163617.320000", "163618.810000", "163620.300000", "163621.790000", "163623.280000", "163624.770000", "163626.260000", "163627.750000", "163629.240000", "163630.730000", "163632.220000", "163633.710000", "163635.200000", "163636.690000", "163638.180000", "163639.670000", "163641.160000", "163642.650000", "163644.140000", "163645.630000", "163647.120000", "163648.610000", "163650.100000", "163651.590000", "163653.080000", "163654.570000", "163656.060000", "163657.550000", "163659.040000", "163700.530000", "163702.020000", "163703.510000", "163705.000000", "163706.490000", "163707.980000", "163709.470000", "163710.960000", "163712.450000", "163713.940000", "163715.430000", "163716.920000", "163718.410000", "163719.900000", "163721.390000", "163722.880000", "163724.370000", "163725.860000", "163727.350000", "163728.840000", "163730.330000", "163731.820000", "163733.310000", "163734.800000", "163736.290000", "163737.780000"],
      "ContentTime": ["163017.462000", "163017.465000", "163017.468000", "163017.470000", "163017.473000", "163017.475000", "163017.478000", "163017.480000", "163017.483000", "163017.485000", "163017.488000", "163017.490000", "163017.493000", "163017.501000", "163017.504000", "163017.506000", "163017.509000", "163017.511000", "163017.514000", "163017.516000", "163017.519000", "163017.521000", "163037.386000", "163037.389000", "163037.392000", "163037.394000", "163037.397000", "163037.399000", "163037.402000", "163037.404000", "163037.407000", "163037.409000", "163037.412000", "163037.414000", "163037.417000", "163037.419000", "163037.430000", "163037.433000", "163037.435000", "163037.438000", "163037.440000", "163037.443000", "163037.445000", "163057.390000", "163057.393000", "163057.396000", "163057.398000", "163057.401000", "163057.403000", "163057.406000", "163057.408000", "163057.411000", "163057.422000", "163057.425000", "163057.427000", "163057.430000", "163057.432000", "163057.435000", "163057.437000", "163057.440000", "163057.442000", "163057.445000", "163057.447000", "163117.400000", "163117.403000", "163117.406000", "163117.408000", "163117.411000", "163117.413000", "163117.415000", "163117.418000", "163117.421000", "163117.423000", "163117.426000", "163117.428000", "163117.431000", "163117.433000", "163117.436000", "163117.438000", "163117.441000", "163117.443000", "163117.446000", "163117.448000", "163157.454000", "163157.457000", "163157.459000", "163157.462000", "163157.465000", "163157.467000", "163157.470000", "163157.472000", "163157.475000", "163157.477000", "163157.480000", "163157.482000", "163157.485000", "163157.487000", "163157.490000", "163157.492000", "163157.495000", "163157.498000", "163157.500000", "163157.503000", "163157.505000", "163157.508000", "163157.510000", "163157.513000", "163157.515000", "163157.518000", "163157.520000", "163157.523000", "163157.525000", "163157.528000", "163157.530000", "163237.421000", "163237.424000", "163237.426000", "163237.429000", "163237.431000", "163237.434000", "163237.436000", "163237.439000", "163237.441000", "163237.444000", "163237.447000", "163237.455000", "163237.458000", "163237.460000", "163237.463000", "163237.466000", "163237.468000", "163237.471000", "163237.473000", "163237.476000", "163237.478000", "163237.481000", "163237.483000", "163237.486000", "163237.488000", "163237.491000", "163237.493000", "163317.424000", "163317.427000", "163317.429000", "163317.432000", "163317.435000", "163317.437000", "163317.440000", "163317.442000", "163317.445000", "163317.448000", "163317.450000", "163317.453000", "163317.456000", "163317.458000", "163317.461000", "163317.463000", "163317.466000", "163317.468000", "163317.471000", "163317.473000", "163317.476000", "163317.479000", "163317.481000", "163317.484000", "163317.486000", "163317.489000", "163317.492000", "163357.426000", "163357.429000", "163357.431000", "163357.434000", "163357.436000", "163357.439000", "163357.441000", "163357.444000", "163357.446000", "163357.449000", "163357.451000", "163357.454000", "163357.457000", "163357.459000", "163357.462000", "163357.464000", "163357.467000", "163357.469000", "163357.472000", "163357.474000", "163357.477000", "163357.479000", "163357.482000", "163357.485000", "163357.487000", "163357.490000", "163357.492000", "163437.428000", "163437.430000", "163437.433000", "163437.435000", "163437.438000", "163437.441000", "163437.443000", "163437.446000", "163437.448000", "163437.451000", "163437.453000", "163437.456000", "163437.458000", "163437.461000", "163437.463000", "163437.466000", "163437.468000", "163437.471000", "163437.473000", "163437.476000", "163437.478000", "163437.481000", "163437.483000", "163437.486000", "163437.488000", "163437.491000", "163437.493000", "163517.448000", "163517.450000", "163517.461000", "163517.464000", "163517.466000", "163517.469000", "163517.472000", "163517.474000", "163517.477000", "163517.479000", "163517.482000", "163517.484000", "163517.487000", "163517.489000", "163517.492000", "163517.494000", "163517.497000", "163517.499000", "163517.502000", "163517.504000", "163517.507000", "163517.509000", "163517.512000", "163517.514000", "163517.517000", "163517.520000", "163517.522000", "163557.415000", "163557.418000", "163557.421000", "163557.423000", "163557.426000", "163557.428000", "163557.431000", "163557.442000", "163557.445000", "163557.447000", "163557.450000", "163557.452000", "163557.455000", "163557.458000", "163557.460000", "163557.463000", "163557.465000", "163557.468000", "163557.470000", "163557.473000", "163557.475000", "163557.478000", "163557.480000", "163557.504000", "163557.507000", "163557.509000", "163637.423000", "163637.426000", "163637.428000", "163637.431000", "163637.434000", "163637.436000", "163637.439000", "163637.441000", "163637.444000", "163637.446000", "163637.449000", "163637.451000", "163637.454000", "163637.456000", "163637.459000", "163637.462000", "163637.464000", "163637.467000", "163637.469000", "163637.472000", "163637.474000", "163637.477000", "163637.480000", "163637.482000", "163637.485000", "163637.487000", "163637.490000", "163717.425000", "163717.428000", "163717.431000", "163717.433000", "163717.436000", "163717.438000", "163717.441000", "163717.443000", "163717.446000", "163717.448000", "163717.451000", "163717.454000", "163717.456000", "163717.459000", "163717.461000", "163717.464000", "163717.466000", "163717.469000", "163717.478000", "163717.480000", "163717.483000", "163717.485000", "163717.488000", "163717.490000", "163717.493000", "163717.495000", "163717.498000", "163740.396000", "163740.399000", "163740.402000", "163740.404000", "163740.407000", "163740.409000", "163740.412000", "163740.414000", "163740.417000", "163740.419000", "163740.422000", "163740.425000", "163740.427000", "163740.430000", "163740.432000", "163740.435000"],
      "InstanceCreationTime": ["163017.462000", "163017.465000", "163017.468000", "163017.470000", "163017.473000", "163017.475000", "163017.478000", "163017.480000", "163017.483000", "163017.485000", "163017.488000", "163017.490000", "163017.493000", "163017.501000", "163017.504000", "163017.506000", "163017.509000", "163017.511000", "163017.514000", "163017.516000", "163017.519000", "163017.521000", "163037.386000", "163037.389000", "163037.392000", "163037.394000", "163037.397000", "163037.399000", "163037.402000", "163037.404000", "163037.407000", "163037.409000", "163037.412000", "163037.414000", "163037.417000", "163037.419000", "163037.430000", "163037.433000", "163037.435000", "163037.438000", "163037.440000", "163037.443000", "163037.445000", "163057.390000", "163057.393000", "163057.396000", "163057.398000", "163057.401000", "163057.403000", "163057.406000", "163057.408000", "163057.411000", "163057.422000", "163057.425000", "163057.427000", "163057.430000", "163057.432000", "163057.435000", "163057.437000", "163057.440000", "163057.442000", "163057.445000", "163057.447000", "163117.400000", "163117.403000", "163117.406000", "163117.408000", "163117.411000", "163117.413000", "163117.415000", "163117.418000", "163117.421000", "163117.423000", "163117.426000", "163117.428000", "163117.431000", "163117.433000", "163117.436000", "163117.438000", "163117.441000", "163117.443000", "163117.446000", "163117.448000", "163157.454000", "163157.457000", "163157.459000", "163157.462000", "163157.465000", "163157.467000", "163157.470000", "163157.472000", "163157.475000", "163157.477000", "163157.480000", "163157.482000", "163157.485000", "163157.487000", "163157.490000", "163157.492000", "163157.495000", "163157.498000", "163157.500000", "163157.503000", "163157.505000", "163157.508000", "163157.510000", "163157.513000", "163157.515000", "163157.518000", "163157.520000", "163157.523000", "163157.525000", "163157.528000", "163157.530000", "163237.421000", "163237.424000", "163237.426000", "163237.429000", "163237.431000", "163237.434000", "163237.436000", "163237.439000", "163237.441000", "163237.444000", "163237.447000", "163237.455000", "163237.458000", "163237.460000", "163237.463000", "163237.466000", "163237.468000", "163237.471000", "163237.473000", "163237.476000", "163237.478000", "163237.481000", "163237.483000", "163237.486000", "163237.488000", "163237.491000", "163237.493000", "163317.424000", "163317.427000", "163317.429000", "163317.432000", "163317.435000", "163317.437000", "163317.440000", "163317.442000", "163317.445000", "163317.448000", "163317.450000", "163317.453000", "163317.456000", "163317.458000", "163317.461000", "163317.463000", "163317.466000", "163317.468000", "163317.471000", "163317.473000", "163317.476000", "163317.479000", "163317.481000", "163317.484000", "163317.486000", "163317.489000", "163317.492000", "163357.426000", "163357.429000", "163357.431000", "163357.434000", "163357.436000", "163357.439000", "163357.441000", "163357.444000", "163357.446000", "163357.449000", "163357.451000", "163357.454000", "163357.457000", "163357.459000", "163357.462000", "163357.464000", "163357.467000", "163357.469000", "163357.472000", "163357.474000", "163357.477000", "163357.479000", "163357.482000", "163357.485000", "163357.487000", "163357.490000", "163357.492000", "163437.428000", "163437.430000", "163437.433000", "163437.435000", "163437.438000", "163437.441000", "163437.443000", "163437.446000", "163437.448000", "163437.451000", "163437.453000", "163437.456000", "163437.458000", "163437.461000", "163437.463000", "163437.466000", "163437.468000", "163437.471000", "163437.473000", "163437.476000", "163437.478000", "163437.481000", "163437.483000", "163437.486000", "163437.488000", "163437.491000", "163437.493000", "163517.448000", "163517.450000", "163517.461000", "163517.464000", "163517.466000", "163517.469000", "163517.472000", "163517.474000", "163517.477000", "163517.479000", "163517.482000", "163517.484000", "163517.487000", "163517.489000", "163517.492000", "163517.494000", "163517.497000", "163517.499000", "163517.502000", "163517.504000", "163517.507000", "163517.509000", "163517.512000", "163517.514000", "163517.517000", "163517.520000", "163517.522000", "163557.415000", "163557.418000", "163557.421000", "163557.423000", "163557.426000", "163557.428000", "163557.431000", "163557.442000", "163557.445000", "163557.447000", "163557.450000", "163557.452000", "163557.455000", "163557.458000", "163557.460000", "163557.463000", "163557.465000", "163557.468000", "163557.470000", "163557.473000", "163557.475000", "163557.478000", "163557.480000", "163557.504000", "163557.507000", "163557.509000", "163637.423000", "163637.426000", "163637.428000", "163637.431000", "163637.434000", "163637.436000", "163637.439000", "163637.441000", "163637.444000", "163637.446000", "163637.449000", "163637.451000", "163637.454000", "163637.456000", "163637.459000", "163637.462000", "163637.464000", "163637.467000", "163637.469000", "163637.472000", "163637.474000", "163637.477000", "163637.480000", "163637.482000", "163637.485000", "163637.487000", "163637.490000", "163717.425000", "163717.428000", "163717.431000", "163717.433000", "163717.436000", "163717.438000", "163717.441000", "163717.443000", "163717.446000", "163717.448000", "163717.451000", "163717.454000", "163717.456000", "163717.459000", "163717.461000", "163717.464000", "163717.466000", "163717.469000", "163717.478000", "163717.480000", "163717.483000", "163717.485000", "163717.488000", "163717.490000", "163717.493000", "163717.495000", "163717.498000", "163740.396000", "163740.399000", "163740.402000", "163740.404000", "163740.407000", "163740.409000", "163740.412000", "163740.414000", "163740.417000", "163740.419000", "163740.422000", "163740.425000", "163740.427000", "163740.430000", "163740.432000", "163740.435000"],
      "InstanceNumber": [1, 2, 3, 4, 5, 6, 7, 8, 9, 10, 11, 12, 13, 14, 15, 16, 17, 18, 19, 20, 21, 22, 23, 24, 25, 26, 27, 28, 29, 30, 31, 32, 33, 34, 35, 36, 37, 38, 39, 40, 41, 42, 43, 44, 45, 46, 47, 48, 49, 50, 51, 52, 53, 54, 55, 56, 57, 58, 59, 60, 61, 62, 63, 64, 65, 66, 67, 68, 69, 70, 71, 72, 73, 74, 75, 76, 77, 78, 79, 80, 81, 82, 83, 84, 85, 86, 87, 88, 89, 90, 91, 92, 93, 94, 95, 96, 97, 98, 99, 100, 101, 102, 103, 104, 105, 106, 107, 108, 109, 110, 111, 112, 113, 114, 115, 116, 117, 118, 119, 120, 121, 122, 123, 124, 125, 126, 127, 128, 129, 130, 131, 132, 133, 134, 135, 136, 137, 138, 139, 140, 141, 142, 143, 144, 145, 146, 147, 148, 149, 150, 151, 152, 153, 154, 155, 156, 157, 158, 159, 160, 161, 162, 163, 164, 165, 166, 167, 168, 169, 170, 171, 172, 173, 174, 175, 176, 177, 178, 179, 180, 181, 182, 183, 184, 185, 186, 187, 188, 189, 190, 191, 192, 193, 194, 195, 196, 197, 198, 199, 200, 201, 202, 203, 204, 205, 206, 207, 208, 209, 210, 211, 212, 213, 214, 215, 216, 217, 218, 219, 220, 221, 222, 223, 224, 225, 226, 227, 228, 229, 230, 231, 232, 233, 234, 235, 236, 237, 238, 239, 240, 241, 242, 243, 244, 245, 246, 247, 248, 249, 250, 251, 252, 253, 254, 255, 256, 257, 258, 259, 260, 261, 262, 263, 264, 265, 266, 267, 268, 269, 270, 271, 272, 273, 274, 275, 276, 277, 278, 279, 280, 281, 282, 283, 284, 285, 286, 287, 288, 289, 290, 291, 292, 293, 294, 295, 296, 297, 298, 299, 300, 301, 302, 303, 304, 305, 306, 307, 308, 309, 310, 311, 312, 313, 314, 315, 316, 317, 318, 319, 320, 321, 322, 323, 324, 325, 326, 327, 328, 329, 330, 331, 332, 333, 334, 335, 336, 337, 338, 339, 340, 341, 342, 343, 344, 345],
      "WindowCenter": [4896.0, 4940.0, 4918.0, 4890.0, 4868.0, 4868.0, 4864.0, 4868.0, 4864.0, 4894.0, 4942.0, 4914.0, 4920.0, 4918.0, 4892.0, 4868.0, 4870.0, 4868.0, 4868.0, 4890.0, 4894.0, 4920.0, 4896.0, 4920.0, 4894.0, 4896.0, 4866.0, 4870.0, 4924.0, 4942.0, 4868.0, 4866.0, 4872.0, 4870.0, 4896.0, 4894.0, 4894.0, 4896.0, 4892.0, 4892.0, 4896.0, 4920.0, 4896.0, 4918.0, 4898.0, 4868.0, 4892.0, 4936.0, 4942.0, 4892.0, 4864.0, 4870.0, 4866.0, 4868.0, 4940.0, 4918.0, 4896.0, 4918.0, 4920.0, 4870.0, 4868.0, 4866.0, 4862.0, 4866.0, 4922.0, 4918.0, 4918.0, 4922.0, 4896.0, 4942.0, 4918.0, 4868.0, 4840.0, 4838.0, 4868.0, 4890.0, 4918.0, 4944.0, 4918.0, 4918.0, 4916.0, 4868.0, 4870.0, 4866.0, 4866.0, 4870.0, 4894.0, 4922.0, 4918.0, 4918.0, 4940.0, 4898.0, 4932.0, 4938.0, 4840.0, 4810.0, 4812.0, 4840.0, 4864.0, 4896.0, 4918.0, 4942.0, 4944.0, 4916.0, 4892.0, 4920.0, 4868.0, 4868.0, 4838.0, 4868.0, 4920.0, 4946.0, 4916.0, 4894.0, 4916.0, 4890.0, 4870.0, 4894.0, 4950.0, 4916.0, 4868.0, 4870.0, 4866.0, 4868.0, 4896.0, 4894.0, 4940.0, 4944.0, 4916.0, 4894.0, 4872.0, 4870.0, 4918.0, 4888.0, 4868.0, 4894.0, 4916.0, 4916.0, 4916.0, 4920.0, 4918.0, 4920.0, 4892.0, 4894.0, 4868.0, 4896.0, 4868.0, 4920.0, 4894.0, 4894.0, 4892.0, 4918.0, 4896.0, 4894.0, 4918.0, 4894.0, 4896.0, 4890.0, 4894.0, 4920.0, 4916.0, 4944.0, 4894.0, 4870.0, 4892.0, 4894.0, 4892.0, 4918.0, 4894.0, 4894.0, 4890.0, 4896.0, 4892.0, 4892.0, 4896.0, 4944.0, 4894.0, 4898.0, 4870.0, 4894.0, 4870.0, 4894.0, 4866.0, 4892.0, 4940.0, 4944.0, 4918.0, 4892.0, 4866.0, 4868.0, 4896.0, 4892.0, 4894.0, 4940.0, 4922.0, 4894.0, 4896.0, 4892.0, 4920.0, 4894.0, 4872.0, 4870.0, 4894.0, 4942.0, 4892.0, 4894.0, 4922.0, 4894.0, 4872.0, 4870.0, 4872.0, 4894.0, 4894.0, 4916.0, 4918.0, 4916.0, 4920.0, 4918.0, 4868.0, 4916.0, 4892.0, 4892.0, 4868.0, 4942.0, 4918.0, 4896.0, 4892.0, 4870.0, 4890.0, 4918.0, 4918.0, 4940.0, 4916.0, 4872.0, 4870.0, 4870.0, 4868.0, 4870.0, 4894.0, 4896.0, 4940.0, 4918.0, 4894.0, 4894.0, 4870.0, 4868.0, 4866.0, 4890.0, 4894.0, 4894.0, 4894.0, 4894.0, 4914.0, 4932.0, 4896.0, 4868.0, 4862.0, 4868.0, 4894.0, 4868.0, 4916.0, 4894.0, 4894.0, 4894.0, 4892.0, 4934.0, 4924.0, 4896.0, 4836.0, 4836.0, 4836.0, 4864.0, 4890.0, 4914.0, 4916.0, 4938.0, 4918.0, 4916.0, 4894.0, 4870.0, 4840.0, 4866.0, 4862.0, 4890.0, 4892.0, 4918.0, 4916.0, 4894.0, 4912.0, 4892.0, 4888.0, 4940.0, 4892.0, 4864.0, 4838.0, 4840.0, 4862.0, 4892.0, 4916.0, 4940.0, 4916.0, 4892.0, 4920.0, 4894.0, 4864.0, 4868.0, 4866.0, 4864.0, 4868.0, 4890.0, 4894.0, 4914.0, 4890.0, 4936.0, 4860.0, 4938.0, 4842.0, 4810.0, 4806.0, 4834.0, 4864.0, 4892.0, 4916.0, 4918.0, 4936.0, 4920.0, 4936.0, 4920.0, 4944.0, 4864.0, 4814.0, 4812.0, 4834.0, 4868.0, 4892.0, 4922.0, 4916.0, 4940.0, 4932.0, 4898.0, 4944.0, 4866.0, 4810.0, 4802.0, 4808.0],
