{
  "AcquisitionMatrixPE": 104,
  "AcquisitionNumber": 1,
  "AcquisitionTime": "16:02:38.567500",
  "BandwidthPerPixelPhaseEncode": 17.17,
  "BaseResolution": 104,
  "BodyPartExamined": "BRAIN",
  "CoilCombinationMethod": "Sum of Squares",
  "ConsistencyInfo": "N4_VE11C_LATEST_20160120",
  "ConversionSoftware": "dcm2niix",
  "ConversionSoftwareVersion": "v1.0.20220505",
  "DerivedVendorReportedEchoSpacing": 0.000560011,
  "DeviceSerialNumber": "167006",
  "DwellTime": 2.1e-06,
  "EchoTime": 0.037,
  "EchoTrainLength": 104,
  "EffectiveEchoSpacing": 0.000560011,
  "FlipAngle": 52,
  "HeudiconvVersion": "0.5.3.post811+g6206e14",
  "ImageComments": "Unaliased MB4/PE3/LB",
  "ImageOrientationPatientDICOM": [0.999261, -0.0333538, 0.0191044, 0.0378637, 0.939719, -0.339846],
  "ImageOrientationText": "Tra>Cor(-19.9)>Sag(0.4)",
  "ImageType": [
    "ORIGINAL",
    "PRIMARY",
    "M",
    "MB",
    "ND",
    "MOSAIC"
],
  "ImagingFrequency": 123.259,
  "InPlanePhaseEncodingDirectionDICOM": "COL",
  "InstitutionAddress": "Chemin Queen-Mary 4565,Montreal,District,CA,H3W 1W5",
  "InstitutionName": "IUGM",
  "InstitutionalDepartmentName": "Department",
  "MRAcquisitionType": "2D",
  "MagneticFieldStrength": 3,
  "Manufacturer": "Siemens",
  "ManufacturersModelName": "Prisma_fit",
  "MatrixCoilMode": "SENSE",
  "Modality": "MR",
  "MultibandAccelerationFactor": 4,
  "PartialFourier": 1,
  "PatientPosition": "HFS",
  "PercentPhaseFOV": 100,
  "PercentSampling": 100,
  "PhaseEncodingDirection": "j",
  "PhaseEncodingSteps": 104,
  "PhaseResolution": 1,
  "PixelBandwidth": 2290,
  "ProcedureStepDescription": "games^mario3",
  "ProtocolName": "func_task-mario3_run-01",
  "PulseSequenceDetails": "%CustomerSeq%\\cmrr_mbep2d_bold",
  "ReceiveCoilActiveElements": "HC1-7;NC1,2",
  "ReceiveCoilName": "HeadNeck_64",
  "ReconMatrixPE": 104,
  "RepetitionTime": 1.49,
  "SAR": 0.055255,
  "ScanOptions": "FS",
  "ScanningSequence": "EP",
  "SequenceName": "epfid2d1_104",
  "SequenceVariant": "SK\\SS",
  "SeriesDescription": "func_task-mario3_run-01",
  "SeriesNumber": 10,
  "ShimSetting": [589, -7288, -8814, 517, 42, -287, -163, 57],
  "SliceThickness": 2,
  "SliceTiming": [0, 0.7825, 0.0975, 0.88, 0.195, 0.98, 0.2925, 1.0775, 0.39, 1.175, 0.49, 1.2725, 0.5875, 1.37, 0.685, 0, 0.7825, 0.0975, 0.88, 0.195, 0.98, 0.2925, 1.0775, 0.39, 1.175, 0.49, 1.2725, 0.5875, 1.37, 0.685, 0, 0.7825, 0.0975, 0.88, 0.195, 0.98, 0.2925, 1.0775, 0.39, 1.175, 0.49, 1.2725, 0.5875, 1.37, 0.685, 0, 0.7825, 0.0975, 0.88, 0.195, 0.98, 0.2925, 1.0775, 0.39, 1.175, 0.49, 1.2725, 0.5875, 1.37, 0.685],
  "SoftwareVersions": "syngo MR E11",
  "SpacingBetweenSlices": 2,
  "StationName": "MRC35049",
  "TaskName": "mario3",
  "TotalReadoutTime": 0.0576811,
  "TxRefAmp": 241.173,
  "WipMemBlock": "37714b2f-e6c8-4e30-83f5-48765fe66e0e||Sequence: R017 ve11c/master r/75a17815+; Jun 28 2022 16:32:11 by eja",
  "dcmmeta_affine": [
    [-1.9985220432281494, 0.07572740316390991, 0.013235163874924183, 103.80171966552734],
    [0.06670759618282318, 1.8794374465942383, -0.6806355714797974, -68.4758071899414],
    [0.03820871561765671, 0.6796911358833313, 1.8805744647979736, -64.08352661132812],
    [0.0, 0.0, 0.0, 1.0]
],
  "dcmmeta_reorient_transform": [
    [0.0, -1.0, 0.0, 103.0],
    [1.0, 0.0, 0.0, 0.0],
    [0.0, 0.0, 1.0, 0.0],
    [0.0, 0.0, 0.0, 1.0]
],
  "dcmmeta_shape": [104, 104, 60, 332],
  "dcmmeta_slice_dim": 2,
  "dcmmeta_version": 0.6,
  "global": {
    "const": {
      "AcquisitionMatrix": [104, 0, 0, 104],
      "AngioFlag": "N",
      "BitsAllocated": 16,
      "BitsStored": 16,
      "BodyPartExamined": "BRAIN",
      "Columns": 832,
      "EchoNumbers": 1,
      "EchoTime": 37.0,
      "EchoTrainLength": 104,
      "FlipAngle": 52.0,
      "HighBit": 15,
      "ImageOrientationPatient": [0.99926100074527, -0.0333537991531, 0.01910435739891, 0.03786370292548, 0.93971874922521, -0.3398455713341],
      "ImagePositionPatient": [-866.62842675767, -784.93993777643, 239.4242673561],
      "ImageType": [
        "ORIGINAL",
        "PRIMARY",
        "M",
        "MB",
        "ND",
        "MOSAIC"
],
      "ImagedNucleus": "1H",
      "ImagingFrequency": 123.259048,
      "InPlanePhaseEncodingDirection": "COL",
      "MRAcquisitionType": "2D",
      "MagneticFieldStrength": 3.0,
      "Manufacturer": "SIEMENS",
      "ManufacturerModelName": "Prisma_fit",
      "Modality": "MR",
      "NumberOfAverages": 1.0,
      "NumberOfPhaseEncodingSteps": 104,
      "PercentPhaseFieldOfView": 100.0,
      "PercentSampling": 100.0,
      "PerformedProcedureStepStartTime": "155737.296000",
      "PhotometricInterpretation": "MONOCHROME2",
      "PixelBandwidth": 2290.0,
      "PixelRepresentation": 0,
      "PixelSpacing": [2.0, 2.0],
      "ProtocolName": "func_task-mario3_run-01",
      "RepetitionTime": 1490.0,
      "Rows": 832,
      "SAR": 0.05525499147013,
      "SamplesPerPixel": 1,
      "ScanOptions": "FS",
      "ScanningSequence": "EP",
      "SequenceName": "epfid2d1_104",
      "SequenceVariant": [
        "SK",
        "SS"
],
      "SeriesDescription": "func_task-mario3_run-01",
      "SeriesNumber": 10,
      "SeriesTime": "160356.490000",
      "SliceLocation": -36.266465250793,
      "SliceThickness": 2.0,
      "SmallestImagePixelValue": 0,
      "SoftwareVersions": "syngo MR E11",
      "SpacingBetweenSlices": 2.0000000438609,
      "SpecificCharacterSet": "ISO_IR 100",
      "StudyID": "1",
      "StudyTime": "155737.223000",
      "TransmitCoilName": "Body",
      "VariableFlipAngleFlag": "N",
      "WindowCenterWidthExplanation": "Algo1",
      "dBdt": 0.0},
    "slices": {}
  },
  "time": {
    "samples": {
      "AcquisitionNumber": [1, 2, 3, 4, 5, 6, 7, 8, 9, 10, 11, 12, 13, 14, 15, 16, 17, 18, 19, 20, 21, 22, 23, 24, 25, 26, 27, 28, 29, 30, 31, 32, 33, 34, 35, 36, 37, 38, 39, 40, 41, 42, 43, 44, 45, 46, 47, 48, 49, 50, 51, 52, 53, 54, 55, 56, 57, 58, 59, 60, 61, 62, 63, 64, 65, 66, 67, 68, 69, 70, 71, 72, 73, 74, 75, 76, 77, 78, 79, 80, 81, 82, 83, 84, 85, 86, 87, 88, 89, 90, 91, 92, 93, 94, 95, 96, 97, 98, 99, 100, 101, 102, 103, 104, 105, 106, 107, 108, 109, 110, 111, 112, 113, 114, 115, 116, 117, 118, 119, 120, 121, 122, 123, 124, 125, 126, 127, 128, 129, 130, 131, 132, 133, 134, 135, 136, 137, 138, 139, 140, 141, 142, 143, 144, 145, 146, 147, 148, 149, 150, 151, 152, 153, 154, 155, 156, 157, 158, 159, 160, 161, 162, 163, 164, 165, 166, 167, 168, 169, 170, 171, 172, 173, 174, 175, 176, 177, 178, 179, 180, 181, 182, 183, 184, 185, 186, 187, 188, 189, 190, 191, 192, 193, 194, 195, 196, 197, 198, 199, 200, 201, 202, 203, 204, 205, 206, 207, 208, 209, 210, 211, 212, 213, 214, 215, 216, 217, 218, 219, 220, 221, 222, 223, 224, 225, 226, 227, 228, 229, 230, 231, 232, 233, 234, 235, 236, 237, 238, 239, 240, 241, 242, 243, 244, 245, 246, 247, 248, 249, 250, 251, 252, 253, 254, 255, 256, 257, 258, 259, 260, 261, 262, 263, 264, 265, 266, 267, 268, 269, 270, 271, 272, 273, 274, 275, 276, 277, 278, 279, 280, 281, 282, 283, 284, 285, 286, 287, 288, 289, 290, 291, 292, 293, 294, 295, 296, 297, 298, 299, 300, 301, 302, 303, 304, 305, 306, 307, 308, 309, 310, 311, 312, 313, 314, 315, 316, 317, 318, 319, 320, 321, 322, 323, 324, 325, 326, 327, 328, 329, 330, 331, 332],
      "AcquisitionTime": ["160238.567500", "160240.057500", "160241.547500", "160243.037500", "160244.527500", "160246.017500", "160247.507500", "160248.997500", "160250.487500", "160251.977500", "160253.467500", "160254.957500", "160256.447500", "160257.937500", "160259.427500", "160300.917500", "160302.407500", "160303.897500", "160305.387500", "160306.877500", "160308.367500", "160309.857500", "160311.347500", "160312.837500", "160314.327500", "160315.817500", "160317.307500", "160318.797500", "160320.287500", "160321.777500", "160323.267500", "160324.757500", "160326.247500", "160327.737500", "160329.227500", "160330.717500", "160332.207500", "160333.697500", "160335.187500", "160336.677500", "160338.167500", "160339.657500", "160341.147500", "160342.637500", "160344.127500", "160345.617500", "160347.107500", "160348.597500", "160350.087500", "160351.577500", "160353.067500", "160354.557500", "160356.047500", "160357.537500", "160359.027500", "160400.517500", "160402.007500", "160403.497500", "160404.987500", "160406.477500", "160407.967500", "160409.457500", "160410.947500", "160412.437500", "160413.927500", "160415.417500", "160416.907500", "160418.397500", "160419.887500", "160421.377500", "160422.867500", "160424.357500", "160425.847500", "160427.337500", "160428.827500", "160430.317500", "160431.807500", "160433.297500", "160434.787500", "160436.277500", "160437.767500", "160439.257500", "160440.747500", "160442.237500", "160443.727500", "160445.217500", "160446.707500", "160448.197500", "160449.687500", "160451.177500", "160452.667500", "160454.157500", "160455.647500", "160457.137500", "160458.627500", "160500.117500", "160501.607500", "160503.097500", "160504.587500", "160506.077500", "160507.567500", "160509.057500", "160510.547500", "160512.037500", "160513.527500", "160515.017500", "160516.507500", "160517.997500", "160519.487500", "160520.977500", "160522.467500", "160523.957500", "160525.447500", "160526.937500", "160528.427500", "160529.917500", "160531.407500", "160532.897500", "160534.387500", "160535.877500", "160537.367500", "160538.857500", "160540.347500", "160541.837500", "160543.327500", "160544.817500", "160546.307500", "160547.797500", "160549.287500", "160550.777500", "160552.267500", "160553.757500", "160555.247500", "160556.737500", "160558.227500", "160559.717500", "160601.207500", "160602.697500", "160604.187500", "160605.677500", "160607.167500", "160608.657500", "160610.147500", "160611.637500", "160613.127500", "160614.617500", "160616.107500", "160617.597500", "160619.087500", "160620.577500", "160622.067500", "160623.557500", "160625.047500", "160626.537500", "160628.027500", "160629.517500", "160631.007500", "160632.497500", "160633.987500", "160635.477500", "160636.967500", "160638.457500", "160639.947500", "160641.437500", "160642.927500", "160644.417500", "160645.907500", "160647.397500", "160648.887500", "160650.377500", "160651.867500", "160653.357500", "160654.847500", "160656.337500", "160657.827500", "160659.317500", "160700.807500", "160702.297500", "160703.787500", "160705.277500", "160706.767500", "160708.257500", "160709.747500", "160711.237500", "160712.727500", "160714.217500", "160715.707500", "160717.197500", "160718.687500", "160720.177500", "160721.667500", "160723.157500", "160724.647500", "160726.137500", "160727.627500", "160729.117500", "160730.607500", "160732.097500", "160733.587500", "160735.077500", "160736.567500", "160738.057500", "160739.547500", "160741.037500", "160742.527500", "160744.017500", "160745.507500", "160746.997500", "160748.487500", "160749.977500", "160751.467500", "160752.957500", "160754.447500", "160755.937500", "160757.427500", "160758.917500", "160800.407500", "160801.897500", "160803.387500", "160804.877500", "160806.367500", "160807.857500", "160809.347500", "160810.837500", "160812.327500", "160813.817500", "160815.307500", "160816.797500", "160818.287500", "160819.777500", "160821.267500", "160822.757500", "160824.247500", "160825.737500", "160827.227500", "160828.717500", "160830.207500", "160831.697500", "160833.187500", "160834.677500", "160836.167500", "160837.657500", "160839.147500", "160840.637500", "160842.127500", "160843.617500", "160845.107500", "160846.597500", "160848.087500", "160849.577500", "160851.067500", "160852.557500", "160854.047500", "160855.537500", "160857.027500", "160858.517500", "160900.007500", "160901.497500", "160902.987500", "160904.477500", "160905.967500", "160907.457500", "160908.947500", "160910.437500", "160911.927500", "160913.417500", "160914.907500", "160916.397500", "160917.887500", "160919.377500", "160920.867500", "160922.357500", "160923.847500", "160925.337500", "160926.827500", "160928.317500", "160929.807500", "160931.297500", "160932.787500", "160934.277500", "160935.767500", "160937.257500", "160938.747500", "160940.237500", "160941.727500", "160943.217500", "160944.707500", "160946.197500", "160947.687500", "160949.177500", "160950.667500", "160952.157500", "160953.647500", "160955.137500", "160956.627500", "160958.117500", "160959.607500", "161001.097500", "161002.587500", "161004.077500", "161005.567500", "161007.057500", "161008.547500", "161010.037500", "161011.527500", "161013.017500", "161014.507500", "161015.997500", "161017.487500", "161018.977500", "161020.467500", "161021.957500", "161023.447500", "161024.937500", "161026.427500", "161027.917500", "161029.407500", "161030.897500", "161032.387500", "161033.877500", "161035.367500", "161036.857500", "161038.347500", "161039.837500", "161041.327500", "161042.817500", "161044.307500", "161045.797500", "161047.287500", "161048.777500", "161050.267500", "161051.757500"],
      "ContentTime": ["160356.493000", "160356.497000", "160356.500000", "160356.504000", "160356.507000", "160356.511000", "160356.514000", "160356.518000", "160356.521000", "160356.524000", "160356.528000", "160356.531000", "160356.534000", "160356.538000", "160356.541000", "160356.545000", "160356.548000", "160356.551000", "160356.555000", "160356.558000", "160356.561000", "160356.571000", "160356.580000", "160356.583000", "160356.587000", "160356.590000", "160356.593000", "160356.597000", "160416.455000", "160416.489000", "160416.493000", "160416.496000", "160416.499000", "160416.503000", "160416.506000", "160416.510000", "160416.513000", "160416.516000", "160416.520000", "160416.523000", "160416.527000", "160416.530000", "160416.533000", "160416.537000", "160416.540000", "160416.543000", "160416.546000", "160416.550000", "160416.553000", "160436.455000", "160436.459000", "160436.462000", "160436.466000", "160436.469000", "160436.472000", "160436.476000", "160436.479000", "160436.482000", "160436.486000", "160436.489000", "160436.493000", "160436.496000", "160436.499000", "160436.503000", "160436.506000", "160436.509000", "160436.513000", "160436.516000", "160436.519000", "160456.455000", "160456.459000", "160456.462000", "160456.465000", "160456.469000", "160456.472000", "160456.476000", "160456.488000", "160456.492000", "160456.495000", "160456.498000", "160456.502000", "160456.505000", "160456.509000", "160456.512000", "160456.515000", "160456.519000", "160456.522000", "160456.525000", "160456.529000", "160536.456000", "160536.460000", "160536.463000", "160536.467000", "160536.470000", "160536.473000", "160536.477000", "160536.480000", "160536.483000", "160536.487000", "160536.490000", "160536.504000", "160536.508000", "160536.511000", "160536.514000", "160536.518000", "160536.521000", "160536.524000", "160536.528000", "160536.531000", "160536.534000", "160536.538000", "160536.541000", "160536.544000", "160536.548000", "160536.551000", "160536.554000", "160536.558000", "160536.561000", "160616.455000", "160616.459000", "160616.462000", "160616.466000", "160616.469000", "160616.472000", "160616.476000", "160616.479000", "160616.482000", "160616.486000", "160616.489000", "160616.492000", "160616.496000", "160616.499000", "160616.502000", "160616.506000", "160616.509000", "160616.513000", "160616.516000", "160616.519000", "160616.523000", "160616.526000", "160616.529000", "160616.533000", "160616.536000", "160616.539000", "160616.543000", "160656.455000", "160656.459000", "160656.462000", "160656.466000", "160656.469000", "160656.473000", "160656.476000", "160656.479000", "160656.483000", "160656.486000", "160656.489000", "160656.493000", "160656.496000", "160656.500000", "160656.503000", "160656.506000", "160656.510000", "160656.513000", "160656.516000", "160656.520000", "160656.523000", "160656.527000", "160656.530000", "160656.533000", "160656.537000", "160656.540000", "160656.543000", "160736.456000", "160736.460000", "160736.463000", "160736.467000", "160736.470000", "160736.473000", "160736.477000", "160736.480000", "160736.484000", "160736.487000", "160736.490000", "160736.496000", "160736.499000", "160736.503000", "160736.506000", "160736.509000", "160736.513000", "160736.516000", "160736.520000", "160736.523000", "160736.527000", "160736.530000", "160736.533000", "160736.537000", "160736.540000", "160736.543000", "160736.547000", "160816.467000", "160816.470000", "160816.474000", "160816.477000", "160816.481000", "160816.484000", "160816.487000", "160816.491000", "160816.494000", "160816.498000", "160816.501000", "160816.505000", "160816.508000", "160816.511000", "160816.515000", "160816.518000", "160816.521000", "160816.525000", "160816.528000", "160816.532000", "160816.535000", "160816.538000", "160816.542000", "160816.545000", "160816.549000", "160816.552000", "160816.555000", "160856.455000", "160856.460000", "160856.463000", "160856.467000", "160856.470000", "160856.473000", "160856.477000", "160856.480000", "160856.484000", "160856.487000", "160856.490000", "160856.494000", "160856.499000", "160856.502000", "160856.505000", "160856.509000", "160856.512000", "160856.516000", "160856.519000", "160856.522000", "160856.525000", "160856.529000", "160856.532000", "160856.536000", "160856.539000", "160856.543000", "160936.456000", "160936.459000", "160936.463000", "160936.466000", "160936.469000", "160936.473000", "160936.476000", "160936.480000", "160936.483000", "160936.487000", "160936.490000", "160936.493000", "160936.497000", "160936.500000", "160936.503000", "160936.507000", "160936.510000", "160936.514000", "160936.517000", "160936.520000", "160936.524000", "160936.527000", "160936.530000", "160936.534000", "160936.537000", "160936.541000", "160936.544000", "161016.457000", "161016.461000", "161016.464000", "161016.467000", "161016.471000", "161016.474000", "161016.477000", "161016.481000", "161016.484000", "161016.488000", "161016.491000", "161016.494000", "161016.498000", "161016.501000", "161016.504000", "161016.519000", "161016.522000", "161016.526000", "161016.529000", "161016.532000", "161016.536000", "161016.539000", "161016.542000", "161016.546000", "161016.549000", "161016.552000", "161016.556000", "161055.383000", "161055.387000", "161055.390000", "161055.394000", "161055.397000", "161055.400000", "161055.404000", "161055.407000", "161055.411000", "161055.414000", "161055.417000", "161055.421000", "161055.424000", "161055.427000", "161055.431000", "161055.434000", "161055.437000", "161055.441000", "161055.444000", "161055.447000", "161055.451000", "161055.454000", "161055.458000", "161055.461000", "161055.464000", "161055.468000"],
      "InstanceCreationTime": ["160356.493000", "160356.497000", "160356.500000", "160356.504000", "160356.507000", "160356.511000", "160356.514000", "160356.518000", "160356.521000", "160356.524000", "160356.528000", "160356.531000", "160356.534000", "160356.538000", "160356.541000", "160356.545000", "160356.548000", "160356.551000", "160356.555000", "160356.558000", "160356.561000", "160356.571000", "160356.580000", "160356.583000", "160356.587000", "160356.590000", "160356.593000", "160356.597000", "160416.455000", "160416.489000", "160416.493000", "160416.496000", "160416.499000", "160416.503000", "160416.506000", "160416.510000", "160416.513000", "160416.516000", "160416.520000", "160416.523000", "160416.527000", "160416.530000", "160416.533000", "160416.537000", "160416.540000", "160416.543000", "160416.546000", "160416.550000", "160416.553000", "160436.455000", "160436.459000", "160436.462000", "160436.466000", "160436.469000", "160436.472000", "160436.476000", "160436.479000", "160436.482000", "160436.486000", "160436.489000", "160436.493000", "160436.496000", "160436.499000", "160436.503000", "160436.506000", "160436.509000", "160436.513000", "160436.516000", "160436.519000", "160456.455000", "160456.459000", "160456.462000", "160456.465000", "160456.469000", "160456.472000", "160456.476000", "160456.488000", "160456.492000", "160456.495000", "160456.498000", "160456.502000", "160456.505000", "160456.509000", "160456.512000", "160456.515000", "160456.519000", "160456.522000", "160456.525000", "160456.529000", "160536.456000", "160536.460000", "160536.463000", "160536.467000", "160536.470000", "160536.473000", "160536.477000", "160536.480000", "160536.483000", "160536.487000", "160536.490000", "160536.504000", "160536.508000", "160536.511000", "160536.514000", "160536.518000", "160536.521000", "160536.524000", "160536.528000", "160536.531000", "160536.534000", "160536.538000", "160536.541000", "160536.544000", "160536.548000", "160536.551000", "160536.554000", "160536.558000", "160536.561000", "160616.455000", "160616.459000", "160616.462000", "160616.466000", "160616.469000", "160616.472000", "160616.476000", "160616.479000", "160616.482000", "160616.486000", "160616.489000", "160616.492000", "160616.496000", "160616.499000", "160616.502000", "160616.506000", "160616.509000", "160616.513000", "160616.516000", "160616.519000", "160616.523000", "160616.526000", "160616.529000", "160616.533000", "160616.536000", "160616.539000", "160616.543000", "160656.455000", "160656.459000", "160656.462000", "160656.466000", "160656.469000", "160656.473000", "160656.476000", "160656.479000", "160656.483000", "160656.486000", "160656.489000", "160656.493000", "160656.496000", "160656.500000", "160656.503000", "160656.506000", "160656.510000", "160656.513000", "160656.516000", "160656.520000", "160656.523000", "160656.527000", "160656.530000", "160656.533000", "160656.537000", "160656.540000", "160656.543000", "160736.456000", "160736.460000", "160736.463000", "160736.467000", "160736.470000", "160736.473000", "160736.477000", "160736.480000", "160736.484000", "160736.487000", "160736.490000", "160736.496000", "160736.499000", "160736.503000", "160736.506000", "160736.509000", "160736.513000", "160736.516000", "160736.520000", "160736.523000", "160736.527000", "160736.530000", "160736.533000", "160736.537000", "160736.540000", "160736.543000", "160736.547000", "160816.467000", "160816.470000", "160816.474000", "160816.477000", "160816.481000", "160816.484000", "160816.487000", "160816.491000", "160816.494000", "160816.498000", "160816.501000", "160816.505000", "160816.508000", "160816.511000", "160816.515000", "160816.518000", "160816.521000", "160816.525000", "160816.528000", "160816.532000", "160816.535000", "160816.538000", "160816.542000", "160816.545000", "160816.549000", "160816.552000", "160816.555000", "160856.455000", "160856.460000", "160856.463000", "160856.467000", "160856.470000", "160856.473000", "160856.477000", "160856.480000", "160856.484000", "160856.487000", "160856.490000", "160856.494000", "160856.499000", "160856.502000", "160856.505000", "160856.509000", "160856.512000", "160856.516000", "160856.519000", "160856.522000", "160856.525000", "160856.529000", "160856.532000", "160856.536000", "160856.539000", "160856.543000", "160936.456000", "160936.459000", "160936.463000", "160936.466000", "160936.469000", "160936.473000", "160936.476000", "160936.480000", "160936.483000", "160936.487000", "160936.490000", "160936.493000", "160936.497000", "160936.500000", "160936.503000", "160936.507000", "160936.510000", "160936.514000", "160936.517000", "160936.520000", "160936.524000", "160936.527000", "160936.530000", "160936.534000", "160936.537000", "160936.541000", "160936.544000", "161016.457000", "161016.461000", "161016.464000", "161016.467000", "161016.471000", "161016.474000", "161016.477000", "161016.481000", "161016.484000", "161016.488000", "161016.491000", "161016.494000", "161016.498000", "161016.501000", "161016.504000", "161016.519000", "161016.522000", "161016.526000", "161016.529000", "161016.532000", "161016.536000", "161016.539000", "161016.542000", "161016.546000", "161016.549000", "161016.552000", "161016.556000", "161055.383000", "161055.387000", "161055.390000", "161055.394000", "161055.397000", "161055.400000", "161055.404000", "161055.407000", "161055.411000", "161055.414000", "161055.417000", "161055.421000", "161055.424000", "161055.427000", "161055.431000", "161055.434000", "161055.437000", "161055.441000", "161055.444000", "161055.447000", "161055.451000", "161055.454000", "161055.458000", "161055.461000", "161055.464000", "161055.468000"],
      "InstanceNumber": [1, 2, 3, 4, 5, 6, 7, 8, 9, 10, 11, 12, 13, 14, 15, 16, 17, 18, 19, 20, 21, 22, 23, 24, 25, 26, 27, 28, 29, 30, 31, 32, 33, 34, 35, 36, 37, 38, 39, 40, 41, 42, 43, 44, 45, 46, 47, 48, 49, 50, 51, 52, 53, 54, 55, 56, 57, 58, 59, 60, 61, 62, 63, 64, 65, 66, 67, 68, 69, 70, 71, 72, 73, 74, 75, 76, 77, 78, 79, 80, 81, 82, 83, 84, 85, 86, 87, 88, 89, 90, 91, 92, 93, 94, 95, 96, 97, 98, 99, 100, 101, 102, 103, 104, 105, 106, 107, 108, 109, 110, 111, 112, 113, 114, 115, 116, 117, 118, 119, 120, 121, 122, 123, 124, 125, 126, 127, 128, 129, 130, 131, 132, 133, 134, 135, 136, 137, 138, 139, 140, 141, 142, 143, 144, 145, 146, 147, 148, 149, 150, 151, 152, 153, 154, 155, 156, 157, 158, 159, 160, 161, 162, 163, 164, 165, 166, 167, 168, 169, 170, 171, 172, 173, 174, 175, 176, 177, 178, 179, 180, 181, 182, 183, 184, 185, 186, 187, 188, 189, 190, 191, 192, 193, 194, 195, 196, 197, 198, 199, 200, 201, 202, 203, 204, 205, 206, 207, 208, 209, 210, 211, 212, 213, 214, 215, 216, 217, 218, 219, 220, 221, 222, 223, 224, 225, 226, 227, 228, 229, 230, 231, 232, 233, 234, 235, 236, 237, 238, 239, 240, 241, 242, 243, 244, 245, 246, 247, 248, 249, 250, 251, 252, 253, 254, 255, 256, 257, 258, 259, 260, 261, 262, 263, 264, 265, 266, 267, 268, 269, 270, 271, 272, 273, 274, 275, 276, 277, 278, 279, 280, 281, 282, 283, 284, 285, 286, 287, 288, 289, 290, 291, 292, 293, 294, 295, 296, 297, 298, 299, 300, 301, 302, 303, 304, 305, 306, 307, 308, 309, 310, 311, 312, 313, 314, 315, 316, 317, 318, 319, 320, 321, 322, 323, 324, 325, 326, 327, 328, 329, 330, 331, 332],
      "LargestImagePixelValue": [40146, 38346, 37730, 36940, 36705, 36591, 36533, 36306, 36604, 36671, 36733, 37016, 37103, 36711, 36586, 36984, 36777, 37286, 36733, 37013, 36366, 36232, 36692, 36923, 36579, 36594, 36418, 36609, 37090, 36573, 36233, 36193, 36529, 36751, 36783, 39734, 39293, 38898, 38176, 38160, 38116, 38307, 38699, 38450, 38853, 38638, 39368, 39291, 39470, 39227, 38908, 38458, 37755, 37913, 38223, 38583, 39017, 39657, 38835, 38848, 38650, 37897, 37535, 37561, 37664, 37656, 36753, 37271, 36920, 37378, 37177, 37030, 37165, 37577, 36797, 36745, 37591, 37032, 36456, 36863, 37112, 37038, 37156, 36979, 36605, 36690, 36620, 36669, 36345, 37448, 36601, 37056, 36900, 36560, 37502, 36115, 36229, 36147, 38000, 37618, 37369, 37535, 37155, 37277, 37076, 37267, 37085, 37175, 37667, 36691, 37634, 38875, 38414, 38252, 38120, 37612, 37967, 38452, 38554, 38614, 37687, 37858, 36489, 38662, 38868, 39266, 38748, 38011, 38535, 38021, 38577, 39121, 38796, 38488, 39152, 40336, 40286, 38795, 38604, 38874, 39059, 38984, 38076, 38997, 38154, 38286, 39081, 38315, 38562, 39254, 37761, 37502, 37697, 38193, 38757, 38150, 38377, 37521, 38147, 38173, 38813, 38451, 37512, 38290, 37423, 37807, 37307, 37826, 37757, 38297, 38414, 38422, 38474, 37729, 36748, 37218, 36466, 38060, 37671, 37787, 37954, 38652, 38055, 36972, 37278, 37870, 39171, 39124, 38778, 38234, 38283, 38351, 38115, 37500, 37380, 37778, 38422, 39013, 38840, 38897, 38454, 37685, 38490, 38355, 37819, 37258, 37368, 36825, 36839, 36783, 38183, 37964, 37672, 37706, 38338, 38953, 37119, 37426, 36827, 36227, 37093, 36766, 35936, 37283, 36252, 36283, 36322, 36347, 35918, 35905, 36169, 35783, 36290, 35880, 36276, 36073, 36809, 38203, 36991, 36506, 36016, 36280, 36268, 36091, 36346, 36216, 36315, 36733, 36532, 35880, 35942, 36086, 36289, 36313, 36283, 36241, 36616, 37050, 37513, 36849, 36603, 36439, 37432, 37533, 36612, 37058, 36989, 36170, 36124, 36194, 36961, 36521, 36708, 36516, 37252, 36342, 37404, 36781, 36651, 36778, 37221, 37543, 37431, 36897, 36698, 37132, 37012, 36727, 36564, 36874, 36913, 36057, 36377, 36461, 36409, 36423, 37823, 36671, 36562, 37645, 37465, 38507, 38333, 36824, 36782, 37349, 36560, 36545, 37042, 36828, 36999, 36513, 36884, 35978, 36492, 36064, 35651, 35456, 36097, 35925, 36686, 37540, 37566, 35947, 36274, 35808, 35590, 35148, 35240, 35711, 35360, 35722],
