{
  "AcquisitionMatrixPE": 104,
  "AcquisitionNumber": 1,
  "AcquisitionTime": "16:20:24.980000",
  "BandwidthPerPixelPhaseEncode": 17.17,
  "BaseResolution": 104,
  "BodyPartExamined": "BRAIN",
  "CoilCombinationMethod": "Sum of Squares",
  "ConsistencyInfo": "N4_VE11C_LATEST_20160120",
  "ConversionSoftware": "dcm2niix",
  "ConversionSoftwareVersion": "v1.0.20220505",
  "DerivedVendorReportedEchoSpacing": 0.000560011,
  "DeviceSerialNumber": "167006",
  "DwellTime": 2.1e-06,
  "EchoTime": 0.037,
  "EchoTrainLength": 104,
  "EffectiveEchoSpacing": 0.000560011,
  "FlipAngle": 52,
  "HeudiconvVersion": "0.5.3.post811+g6206e14",
  "ImageComments": "Unaliased MB4/PE3/LB",
  "ImageOrientationPatientDICOM": [0.999128, 0.00465245, 0.041486, 0.0186609, 0.839181, -0.543531],
  "ImageOrientationText": "Tra>Cor(-33.0)>Sag(2.1)",
  "ImageType": [
    "ORIGINAL",
    "PRIMARY",
    "M",
    "MB",
    "ND",
    "MOSAIC"
],
  "ImagingFrequency": 123.259,
  "InPlanePhaseEncodingDirectionDICOM": "COL",
  "InstitutionAddress": "Chemin Queen-Mary 4565,Montreal,District,CA,H3W 1W5",
  "InstitutionName": "IUGM",
  "InstitutionalDepartmentName": "Department",
  "MRAcquisitionType": "2D",
  "MagneticFieldStrength": 3,
  "Manufacturer": "Siemens",
  "ManufacturersModelName": "Prisma_fit",
  "MatrixCoilMode": "SENSE",
  "Modality": "MR",
  "MultibandAccelerationFactor": 4,
  "PartialFourier": 1,
  "PatientPosition": "HFS",
  "PercentPhaseFOV": 100,
  "PercentSampling": 100,
  "PhaseEncodingDirection": "j",
  "PhaseEncodingSteps": 104,
  "PhaseResolution": 1,
  "PixelBandwidth": 2290,
  "ProcedureStepDescription": "games^mario3",
  "ProtocolName": "func_task-mario3_run-01",
  "PulseSequenceDetails": "%CustomerSeq%\\cmrr_mbep2d_bold",
  "ReceiveCoilActiveElements": "HC1-7;NC1,2",
  "ReceiveCoilName": "HeadNeck_64",
  "ReconMatrixPE": 104,
  "RepetitionTime": 1.49,
  "SAR": 0.0619517,
  "ScanOptions": "FS",
  "ScanningSequence": "EP",
  "SequenceName": "epfid2d1_104",
  "SequenceVariant": "SK\\SS",
  "SeriesDescription": "func_task-mario3_run-01",
  "SeriesNumber": 10,
  "ShimSetting": [622, -7187, -8873, 225, 23, -215, -2, 21],
  "SliceThickness": 2,
  "SliceTiming": [0, 0.785, 0.1, 0.8825, 0.1975, 0.98, 0.295, 1.0775, 0.3925, 1.1775, 0.49, 1.275, 0.5875, 1.3725, 0.6875, 0, 0.785, 0.1, 0.8825, 0.1975, 0.98, 0.295, 1.0775, 0.3925, 1.1775, 0.49, 1.275, 0.5875, 1.3725, 0.6875, 0, 0.785, 0.1, 0.8825, 0.1975, 0.98, 0.295, 1.0775, 0.3925, 1.1775, 0.49, 1.275, 0.5875, 1.3725, 0.6875, 0, 0.785, 0.1, 0.8825, 0.1975, 0.98, 0.295, 1.0775, 0.3925, 1.1775, 0.49, 1.275, 0.5875, 1.3725, 0.6875],
  "SoftwareVersions": "syngo MR E11",
  "SpacingBetweenSlices": 2,
  "StationName": "MRC35049",
  "TaskName": "mario3",
  "TotalReadoutTime": 0.0576811,
  "TxRefAmp": 284.32,
  "WipMemBlock": "2410f030-a484-4357-ae7c-6f04bb95500a||Sequence: R017 ve11c/master r/75a17815+; Jun 28 2022 16:32:11 by eja",
  "dcmmeta_affine": [
    [-1.9982565641403198, 0.03732188418507576, 0.07468599826097488, 103.40579986572266],
    [-0.009304900653660297, 1.6783627271652222, -1.0876635313034058, -46.9048957824707],
    [0.08297192305326462, 1.0870628356933594, 1.67672598361969, -89.04330444335938],
    [0.0, 0.0, 0.0, 1.0]
],
  "dcmmeta_reorient_transform": [
    [0.0, -1.0, 0.0, 103.0],
    [1.0, 0.0, 0.0, 0.0],
    [0.0, 0.0, 1.0, 0.0],
    [0.0, 0.0, 0.0, 1.0]
],
  "dcmmeta_shape": [104, 104, 60, 324],
  "dcmmeta_slice_dim": 2,
  "dcmmeta_version": 0.6,
  "global": {
    "const": {
      "AcquisitionMatrix": [104, 0, 0, 104],
      "AngioFlag": "N",
      "BitsAllocated": 16,
      "BitsStored": 16,
      "BodyPartExamined": "BRAIN",
      "Columns": 832,
      "EchoNumbers": 1,
      "EchoTime": 37.0,
      "EchoTrainLength": 104,
      "FlipAngle": 52.0,
      "HighBit": 15,
      "ImageOrientationPatient": [0.9991282548604, 0.00465245024183, 0.04148596203963, 0.01866094206303, 0.83918136335533, -0.5435314237819],
      "ImagePositionPatient": [-848.20049272637, -740.27748132592, 388.41326139493],
      "ImageType": [
        "ORIGINAL",
        "PRIMARY",
        "M",
        "MB",
        "ND",
        "MOSAIC"
],
      "ImagedNucleus": "1H",
      "ImagingFrequency": 123.258968,
      "InPlanePhaseEncodingDirection": "COL",
      "MRAcquisitionType": "2D",
      "MagneticFieldStrength": 3.0,
      "Manufacturer": "SIEMENS",
      "ManufacturerModelName": "Prisma_fit",
      "Modality": "MR",
      "NumberOfAverages": 1.0,
      "NumberOfPhaseEncodingSteps": 104,
      "PercentPhaseFieldOfView": 100.0,
      "PercentSampling": 100.0,
      "PerformedProcedureStepStartTime": "161716.389000",
      "PhotometricInterpretation": "MONOCHROME2",
      "PixelBandwidth": 2290.0,
      "PixelRepresentation": 0,
      "PixelSpacing": [2.0, 2.0],
      "ProtocolName": "func_task-mario3_run-01",
      "RepetitionTime": 1490.0,
      "Rows": 832,
      "SAR": 0.06195168817716,
      "SamplesPerPixel": 1,
      "ScanOptions": "FS",
      "ScanningSequence": "EP",
      "SequenceName": "epfid2d1_104",
      "SequenceVariant": [
        "SK",
        "SS"
],
      "SeriesDescription": "func_task-mario3_run-01",
      "SeriesNumber": 10,
      "SeriesTime": "162121.595000",
      "SliceLocation": -45.280758816488,
      "SliceThickness": 2.0,
      "SmallestImagePixelValue": 0,
      "SoftwareVersions": "syngo MR E11",
      "SpacingBetweenSlices": 1.9999999512387,
      "SpecificCharacterSet": "ISO_IR 100",
      "StudyID": "1",
      "StudyTime": "161716.323000",
      "TransmitCoilName": "Body",
      "VariableFlipAngleFlag": "N",
      "WindowCenterWidthExplanation": "Algo1",
      "dBdt": 0.0},
    "slices": {}
  },
  "time": {
    "samples": {
      "AcquisitionNumber": [1, 2, 3, 4, 5, 6, 7, 8, 9, 10, 11, 12, 13, 14, 15, 16, 17, 18, 19, 20, 21, 22, 23, 24, 25, 26, 27, 28, 29, 30, 31, 32, 33, 34, 35, 36, 37, 38, 39, 40, 41, 42, 43, 44, 45, 46, 47, 48, 49, 50, 51, 52, 53, 54, 55, 56, 57, 58, 59, 60, 61, 62, 63, 64, 65, 66, 67, 68, 69, 70, 71, 72, 73, 74, 75, 76, 77, 78, 79, 80, 81, 82, 83, 84, 85, 86, 87, 88, 89, 90, 91, 92, 93, 94, 95, 96, 97, 98, 99, 100, 101, 102, 103, 104, 105, 106, 107, 108, 109, 110, 111, 112, 113, 114, 115, 116, 117, 118, 119, 120, 121, 122, 123, 124, 125, 126, 127, 128, 129, 130, 131, 132, 133, 134, 135, 136, 137, 138, 139, 140, 141, 142, 143, 144, 145, 146, 147, 148, 149, 150, 151, 152, 153, 154, 155, 156, 157, 158, 159, 160, 161, 162, 163, 164, 165, 166, 167, 168, 169, 170, 171, 172, 173, 174, 175, 176, 177, 178, 179, 180, 181, 182, 183, 184, 185, 186, 187, 188, 189, 190, 191, 192, 193, 194, 195, 196, 197, 198, 199, 200, 201, 202, 203, 204, 205, 206, 207, 208, 209, 210, 211, 212, 213, 214, 215, 216, 217, 218, 219, 220, 221, 222, 223, 224, 225, 226, 227, 228, 229, 230, 231, 232, 233, 234, 235, 236, 237, 238, 239, 240, 241, 242, 243, 244, 245, 246, 247, 248, 249, 250, 251, 252, 253, 254, 255, 256, 257, 258, 259, 260, 261, 262, 263, 264, 265, 266, 267, 268, 269, 270, 271, 272, 273, 274, 275, 276, 277, 278, 279, 280, 281, 282, 283, 284, 285, 286, 287, 288, 289, 290, 291, 292, 293, 294, 295, 296, 297, 298, 299, 300, 301, 302, 303, 304, 305, 306, 307, 308, 309, 310, 311, 312, 313, 314, 315, 316, 317, 318, 319, 320, 321, 322, 323, 324],
      "AcquisitionTime": ["162024.980000", "162026.470000", "162027.960000", "162029.450000", "162030.940000", "162032.430000", "162033.920000", "162035.410000", "162036.900000", "162038.390000", "162039.880000", "162041.370000", "162042.860000", "162044.350000", "162045.840000", "162047.330000", "162048.820000", "162050.310000", "162051.800000", "162053.290000", "162054.780000", "162056.270000", "162057.760000", "162059.250000", "162100.740000", "162102.230000", "162103.720000", "162105.210000", "162106.700000", "162108.190000", "162109.680000", "162111.170000", "162112.660000", "162114.150000", "162115.640000", "162117.130000", "162118.620000", "162120.110000", "162121.600000", "162123.090000", "162124.580000", "162126.070000", "162127.560000", "162129.050000", "162130.540000", "162132.030000", "162133.520000", "162135.010000", "162136.500000", "162137.990000", "162139.480000", "162140.970000", "162142.460000", "162143.950000", "162145.440000", "162146.930000", "162148.420000", "162149.910000", "162151.400000", "162152.890000", "162154.380000", "162155.870000", "162157.360000", "162158.850000", "162200.340000", "162201.830000", "162203.320000", "162204.810000", "162206.300000", "162207.790000", "162209.280000", "162210.770000", "162212.260000", "162213.750000", "162215.240000", "162216.730000", "162218.220000", "162219.710000", "162221.200000", "162222.690000", "162224.180000", "162225.670000", "162227.160000", "162228.650000", "162230.140000", "162231.630000", "162233.120000", "162234.610000", "162236.100000", "162237.590000", "162239.080000", "162240.570000", "162242.060000", "162243.550000", "162245.040000", "162246.530000", "162248.020000", "162249.510000", "162251.000000", "162252.490000", "162253.980000", "162255.470000", "162256.960000", "162258.450000", "162259.940000", "162301.430000", "162302.920000", "162304.410000", "162305.900000", "162307.390000", "162308.880000", "162310.370000", "162311.860000", "162313.350000", "162314.840000", "162316.330000", "162317.820000", "162319.310000", "162320.800000", "162322.290000", "162323.780000", "162325.270000", "162326.760000", "162328.250000", "162329.740000", "162331.230000", "162332.720000", "162334.210000", "162335.700000", "162337.190000", "162338.680000", "162340.170000", "162341.660000", "162343.150000", "162344.640000", "162346.130000", "162347.620000", "162349.110000", "162350.600000", "162352.090000", "162353.580000", "162355.070000", "162356.560000", "162358.050000", "162359.540000", "162401.030000", "162402.520000", "162404.010000", "162405.500000", "162406.990000", "162408.480000", "162409.970000", "162411.460000", "162412.950000", "162414.440000", "162415.930000", "162417.420000", "162418.910000", "162420.400000", "162421.890000", "162423.380000", "162424.870000", "162426.360000", "162427.850000", "162429.340000", "162430.830000", "162432.320000", "162433.810000", "162435.300000", "162436.790000", "162438.280000", "162439.770000", "162441.260000", "162442.750000", "162444.240000", "162445.730000", "162447.220000", "162448.710000", "162450.200000", "162451.690000", "162453.180000", "162454.670000", "162456.160000", "162457.650000", "162459.140000", "162500.630000", "162502.120000", "162503.610000", "162505.100000", "162506.590000", "162508.080000", "162509.570000", "162511.060000", "162512.550000", "162514.040000", "162515.530000", "162517.020000", "162518.510000", "162520.000000", "162521.490000", "162522.980000", "162524.470000", "162525.960000", "162527.450000", "162528.940000", "162530.430000", "162531.920000", "162533.410000", "162534.900000", "162536.390000", "162537.880000", "162539.370000", "162540.860000", "162542.350000", "162543.840000", "162545.330000", "162546.820000", "162548.310000", "162549.800000", "162551.290000", "162552.780000", "162554.270000", "162555.760000", "162557.250000", "162558.740000", "162600.230000", "162601.720000", "162603.210000", "162604.700000", "162606.190000", "162607.680000", "162609.170000", "162610.660000", "162612.150000", "162613.640000", "162615.130000", "162616.620000", "162618.110000", "162619.600000", "162621.090000", "162622.580000", "162624.070000", "162625.560000", "162627.050000", "162628.540000", "162630.030000", "162631.520000", "162633.010000", "162634.500000", "162635.990000", "162637.480000", "162638.970000", "162640.460000", "162641.950000", "162643.440000", "162644.930000", "162646.420000", "162647.910000", "162649.400000", "162650.890000", "162652.380000", "162653.870000", "162655.360000", "162656.850000", "162658.340000", "162659.830000", "162701.320000", "162702.810000", "162704.300000", "162705.790000", "162707.280000", "162708.770000", "162710.260000", "162711.750000", "162713.240000", "162714.730000", "162716.220000", "162717.710000", "162719.200000", "162720.690000", "162722.180000", "162723.670000", "162725.160000", "162726.650000", "162728.140000", "162729.630000", "162731.120000", "162732.610000", "162734.100000", "162735.590000", "162737.080000", "162738.570000", "162740.060000", "162741.550000", "162743.040000", "162744.530000", "162746.020000", "162747.510000", "162749.000000", "162750.490000", "162751.980000", "162753.470000", "162754.960000", "162756.450000", "162757.940000", "162759.430000", "162800.920000", "162802.410000", "162803.900000", "162805.390000", "162806.880000", "162808.370000", "162809.860000", "162811.350000", "162812.840000", "162814.330000", "162815.820000", "162817.310000", "162818.800000", "162820.290000", "162821.780000", "162823.270000", "162824.760000", "162826.250000"],
      "ContentTime": ["162121.598000", "162121.610000", "162121.613000", "162121.616000", "162121.619000", "162121.623000", "162121.648000", "162141.524000", "162141.528000", "162141.531000", "162141.534000", "162141.538000", "162141.541000", "162141.545000", "162141.548000", "162141.551000", "162141.555000", "162141.558000", "162141.561000", "162141.565000", "162141.568000", "162141.577000", "162141.581000", "162141.584000", "162141.588000", "162141.591000", "162141.594000", "162201.525000", "162201.529000", "162201.532000", "162201.535000", "162201.539000", "162201.542000", "162201.545000", "162201.548000", "162201.552000", "162201.561000", "162201.564000", "162201.567000", "162201.571000", "162201.574000", "162201.577000", "162201.580000", "162201.584000", "162201.587000", "162201.590000", "162201.594000", "162201.597000", "162221.525000", "162221.529000", "162221.532000", "162221.535000", "162221.539000", "162221.542000", "162221.545000", "162221.548000", "162221.560000", "162221.563000", "162221.566000", "162221.570000", "162221.573000", "162221.576000", "162221.579000", "162221.583000", "162221.586000", "162221.589000", "162221.592000", "162221.596000", "162241.525000", "162241.529000", "162241.532000", "162241.535000", "162241.539000", "162241.542000", "162241.545000", "162241.549000", "162241.552000", "162241.555000", "162241.559000", "162241.562000", "162241.565000", "162241.569000", "162241.572000", "162241.575000", "162241.578000", "162241.582000", "162241.585000", "162241.588000", "162321.524000", "162321.528000", "162321.532000", "162321.535000", "162321.538000", "162321.541000", "162321.545000", "162321.548000", "162321.551000", "162321.555000", "162321.558000", "162321.561000", "162321.565000", "162321.568000", "162321.571000", "162321.574000", "162321.578000", "162321.588000", "162321.591000", "162321.594000", "162321.597000", "162321.601000", "162321.604000", "162321.607000", "162321.611000", "162321.614000", "162321.617000", "162321.620000", "162321.624000", "162321.627000", "162401.525000", "162401.529000", "162401.532000", "162401.536000", "162401.540000", "162401.543000", "162401.547000", "162401.550000", "162401.553000", "162401.557000", "162401.560000", "162401.564000", "162401.567000", "162401.570000", "162401.574000", "162401.577000", "162401.581000", "162401.584000", "162401.588000", "162401.591000", "162401.594000", "162401.598000", "162401.601000", "162401.605000", "162401.608000", "162401.612000", "162441.525000", "162441.529000", "162441.532000", "162441.535000", "162441.539000", "162441.542000", "162441.545000", "162441.549000", "162441.552000", "162441.555000", "162441.559000", "162441.563000", "162441.566000", "162441.569000", "162441.573000", "162441.598000", "162441.602000", "162441.605000", "162441.609000", "162441.612000", "162441.615000", "162441.619000", "162441.622000", "162441.625000", "162441.629000", "162441.632000", "162441.635000", "162521.524000", "162521.528000", "162521.531000", "162521.534000", "162521.538000", "162521.541000", "162521.544000", "162521.548000", "162521.551000", "162521.554000", "162521.558000", "162521.575000", "162521.578000", "162521.581000", "162521.584000", "162521.588000", "162521.591000", "162521.594000", "162521.598000", "162521.601000", "162521.605000", "162521.608000", "162521.611000", "162521.614000", "162521.618000", "162521.621000", "162521.624000", "162601.524000", "162601.528000", "162601.531000", "162601.535000", "162601.538000", "162601.541000", "162601.545000", "162601.548000", "162601.552000", "162601.555000", "162601.559000", "162601.562000", "162601.565000", "162601.569000", "162601.572000", "162601.576000", "162601.579000", "162601.582000", "162601.586000", "162601.589000", "162601.593000", "162601.596000", "162601.599000", "162601.602000", "162601.606000", "162601.609000", "162601.612000", "162641.525000", "162641.529000", "162641.532000", "162641.535000", "162641.539000", "162641.542000", "162641.545000", "162641.549000", "162641.552000", "162641.555000", "162641.559000", "162641.562000", "162641.565000", "162641.569000", "162641.572000", "162641.575000", "162641.579000", "162641.582000", "162641.585000", "162641.596000", "162641.599000", "162641.602000", "162641.606000", "162641.609000", "162641.612000", "162641.616000", "162641.619000", "162721.525000", "162721.529000", "162721.532000", "162721.536000", "162721.539000", "162721.542000", "162721.545000", "162721.549000", "162721.552000", "162721.556000", "162721.559000", "162721.562000", "162721.565000", "162721.569000", "162721.572000", "162721.575000", "162721.579000", "162721.582000", "162721.586000", "162721.589000", "162721.592000", "162721.596000", "162721.599000", "162721.602000", "162721.606000", "162721.609000", "162721.612000", "162801.524000", "162801.528000", "162801.531000", "162801.534000", "162801.538000", "162801.541000", "162801.545000", "162801.548000", "162801.551000", "162801.555000", "162801.560000", "162801.563000", "162801.567000", "162801.570000", "162801.574000", "162801.578000", "162801.582000", "162801.585000", "162801.588000", "162801.591000", "162801.595000", "162801.598000", "162801.601000", "162801.605000", "162801.608000", "162801.611000", "162829.494000", "162829.498000", "162829.502000", "162829.505000", "162829.509000", "162829.512000", "162829.515000", "162829.519000", "162829.522000", "162829.525000", "162829.528000", "162829.532000", "162829.535000", "162829.538000", "162829.542000", "162829.545000", "162829.548000", "162829.552000", "162829.555000"],
      "InstanceCreationTime": ["162121.598000", "162121.610000", "162121.613000", "162121.616000", "162121.619000", "162121.623000", "162121.648000", "162141.524000", "162141.528000", "162141.531000", "162141.534000", "162141.538000", "162141.541000", "162141.545000", "162141.548000", "162141.551000", "162141.555000", "162141.558000", "162141.561000", "162141.565000", "162141.568000", "162141.577000", "162141.581000", "162141.584000", "162141.588000", "162141.591000", "162141.594000", "162201.525000", "162201.529000", "162201.532000", "162201.535000", "162201.539000", "162201.542000", "162201.545000", "162201.548000", "162201.552000", "162201.561000", "162201.564000", "162201.567000", "162201.571000", "162201.574000", "162201.577000", "162201.580000", "162201.584000", "162201.587000", "162201.590000", "162201.594000", "162201.597000", "162221.525000", "162221.529000", "162221.532000", "162221.535000", "162221.539000", "162221.542000", "162221.545000", "162221.548000", "162221.560000", "162221.563000", "162221.566000", "162221.570000", "162221.573000", "162221.576000", "162221.579000", "162221.583000", "162221.586000", "162221.589000", "162221.592000", "162221.596000", "162241.525000", "162241.529000", "162241.532000", "162241.535000", "162241.539000", "162241.542000", "162241.545000", "162241.549000", "162241.552000", "162241.555000", "162241.559000", "162241.562000", "162241.565000", "162241.569000", "162241.572000", "162241.575000", "162241.578000", "162241.582000", "162241.585000", "162241.588000", "162321.524000", "162321.528000", "162321.532000", "162321.535000", "162321.538000", "162321.541000", "162321.545000", "162321.548000", "162321.551000", "162321.555000", "162321.558000", "162321.561000", "162321.565000", "162321.568000", "162321.571000", "162321.574000", "162321.578000", "162321.588000", "162321.591000", "162321.594000", "162321.597000", "162321.601000", "162321.604000", "162321.607000", "162321.611000", "162321.614000", "162321.617000", "162321.620000", "162321.624000", "162321.627000", "162401.525000", "162401.529000", "162401.532000", "162401.536000", "162401.540000", "162401.543000", "162401.547000", "162401.550000", "162401.553000", "162401.557000", "162401.560000", "162401.564000", "162401.567000", "162401.570000", "162401.574000", "162401.577000", "162401.581000", "162401.584000", "162401.588000", "162401.591000", "162401.594000", "162401.598000", "162401.601000", "162401.605000", "162401.608000", "162401.612000", "162441.525000", "162441.529000", "162441.532000", "162441.535000", "162441.539000", "162441.542000", "162441.545000", "162441.549000", "162441.552000", "162441.555000", "162441.559000", "162441.563000", "162441.566000", "162441.569000", "162441.573000", "162441.598000", "162441.602000", "162441.605000", "162441.609000", "162441.612000", "162441.615000", "162441.619000", "162441.622000", "162441.625000", "162441.629000", "162441.632000", "162441.635000", "162521.524000", "162521.528000", "162521.531000", "162521.534000", "162521.538000", "162521.541000", "162521.544000", "162521.548000", "162521.551000", "162521.554000", "162521.558000", "162521.575000", "162521.578000", "162521.581000", "162521.584000", "162521.588000", "162521.591000", "162521.594000", "162521.598000", "162521.601000", "162521.605000", "162521.608000", "162521.611000", "162521.614000", "162521.618000", "162521.621000", "162521.624000", "162601.524000", "162601.528000", "162601.531000", "162601.535000", "162601.538000", "162601.541000", "162601.545000", "162601.548000", "162601.552000", "162601.555000", "162601.559000", "162601.562000", "162601.565000", "162601.569000", "162601.572000", "162601.576000", "162601.579000", "162601.582000", "162601.586000", "162601.589000", "162601.593000", "162601.596000", "162601.599000", "162601.602000", "162601.606000", "162601.609000", "162601.612000", "162641.525000", "162641.529000", "162641.532000", "162641.535000", "162641.539000", "162641.542000", "162641.545000", "162641.549000", "162641.552000", "162641.555000", "162641.559000", "162641.562000", "162641.565000", "162641.569000", "162641.572000", "162641.575000", "162641.579000", "162641.582000", "162641.585000", "162641.596000", "162641.599000", "162641.602000", "162641.606000", "162641.609000", "162641.612000", "162641.616000", "162641.619000", "162721.525000", "162721.529000", "162721.532000", "162721.536000", "162721.539000", "162721.542000", "162721.545000", "162721.549000", "162721.552000", "162721.556000", "162721.559000", "162721.562000", "162721.565000", "162721.569000", "162721.572000", "162721.575000", "162721.579000", "162721.582000", "162721.586000", "162721.589000", "162721.592000", "162721.596000", "162721.599000", "162721.602000", "162721.606000", "162721.609000", "162721.612000", "162801.524000", "162801.528000", "162801.531000", "162801.534000", "162801.538000", "162801.541000", "162801.545000", "162801.548000", "162801.551000", "162801.555000", "162801.560000", "162801.563000", "162801.567000", "162801.570000", "162801.574000", "162801.578000", "162801.582000", "162801.585000", "162801.588000", "162801.591000", "162801.595000", "162801.598000", "162801.601000", "162801.605000", "162801.608000", "162801.611000", "162829.494000", "162829.498000", "162829.502000", "162829.505000", "162829.509000", "162829.512000", "162829.515000", "162829.519000", "162829.522000", "162829.525000", "162829.528000", "162829.532000", "162829.535000", "162829.538000", "162829.542000", "162829.545000", "162829.548000", "162829.552000", "162829.555000"],
      "InstanceNumber": [1, 2, 3, 4, 5, 6, 7, 8, 9, 10, 11, 12, 13, 14, 15, 16, 17, 18, 19, 20, 21, 22, 23, 24, 25, 26, 27, 28, 29, 30, 31, 32, 33, 34, 35, 36, 37, 38, 39, 40, 41, 42, 43, 44, 45, 46, 47, 48, 49, 50, 51, 52, 53, 54, 55, 56, 57, 58, 59, 60, 61, 62, 63, 64, 65, 66, 67, 68, 69, 70, 71, 72, 73, 74, 75, 76, 77, 78, 79, 80, 81, 82, 83, 84, 85, 86, 87, 88, 89, 90, 91, 92, 93, 94, 95, 96, 97, 98, 99, 100, 101, 102, 103, 104, 105, 106, 107, 108, 109, 110, 111, 112, 113, 114, 115, 116, 117, 118, 119, 120, 121, 122, 123, 124, 125, 126, 127, 128, 129, 130, 131, 132, 133, 134, 135, 136, 137, 138, 139, 140, 141, 142, 143, 144, 145, 146, 147, 148, 149, 150, 151, 152, 153, 154, 155, 156, 157, 158, 159, 160, 161, 162, 163, 164, 165, 166, 167, 168, 169, 170, 171, 172, 173, 174, 175, 176, 177, 178, 179, 180, 181, 182, 183, 184, 185, 186, 187, 188, 189, 190, 191, 192, 193, 194, 195, 196, 197, 198, 199, 200, 201, 202, 203, 204, 205, 206, 207, 208, 209, 210, 211, 212, 213, 214, 215, 216, 217, 218, 219, 220, 221, 222, 223, 224, 225, 226, 227, 228, 229, 230, 231, 232, 233, 234, 235, 236, 237, 238, 239, 240, 241, 242, 243, 244, 245, 246, 247, 248, 249, 250, 251, 252, 253, 254, 255, 256, 257, 258, 259, 260, 261, 262, 263, 264, 265, 266, 267, 268, 269, 270, 271, 272, 273, 274, 275, 276, 277, 278, 279, 280, 281, 282, 283, 284, 285, 286, 287, 288, 289, 290, 291, 292, 293, 294, 295, 296, 297, 298, 299, 300, 301, 302, 303, 304, 305, 306, 307, 308, 309, 310, 311, 312, 313, 314, 315, 316, 317, 318, 319, 320, 321, 322, 323, 324],
      "LargestImagePixelValue": [47710, 47924, 44885, 44572, 45611, 45318, 45161, 46617, 46872, 47355, 47823, 46376, 46832, 44912, 45715, 45889, 45064, 45502, 46240, 47054, 47052, 47246, 45047, 45090, 46702, 44874, 45287, 45764, 45712, 46001, 45667, 45003, 46108, 45597, 46797, 46769, 45737, 45443, 46291, 46306, 45305, 46138, 45903, 46027, 46158, 46314, 45426, 47080, 46851, 46560, 46945, 46435, 46888, 46169, 47951, 47210, 47111, 46450, 46614, 48702, 48925, 47594, 48256, 47329, 46237, 46009, 46979, 46867, 46982, 46600, 48144, 47495, 47377, 46554, 47694, 47103, 47840, 47173, 47467, 45731, 46836, 47070, 46044, 46215, 46986, 47996, 47684, 48593, 47551, 47766, 47780, 47003, 47521, 47276, 47660, 47689, 47416, 47709, 47343, 47750, 46637, 47532, 47059, 47469, 47434, 47696, 48241, 48134, 47837, 47678, 47559, 47621, 47493, 47264, 47519, 47496, 47611, 47613, 47222, 48128, 47418, 47557, 47857, 47150, 47720, 46933, 47897, 46861, 47095, 47462, 47589, 47558, 47324, 47384, 47913, 47684, 46893, 46964, 47844, 47382, 47939, 46866, 47111, 46548, 47923, 47660, 46913, 47454, 47089, 47336, 47818, 47453, 47100, 47785, 46161, 45997, 46801, 47191, 46655, 46511, 47172, 46780, 46616, 47001, 47524, 46309, 45206, 45929, 46671, 47005, 45949, 45753, 46082, 45927, 45503, 47189, 46175, 46047, 45078, 45005, 44959, 45331, 45635, 46297, 45410, 45229, 45714, 45269, 45312, 46716, 46682, 47000, 47243, 45900, 45673, 45858, 46229, 46388, 45896, 45637, 45756, 47303, 46611, 48218, 47383, 47498, 46947, 47720, 46997, 46625, 47323, 47259, 47300, 47118, 47092, 47171, 46816, 46937, 46815, 47002, 47555, 46809, 47406, 47095, 47724, 46109, 47656, 47485, 47136, 47271, 47308, 47257, 46853, 46508, 47002, 47302, 46980, 45584, 46688, 46613, 47190, 46970, 47469, 46026, 47281, 46509, 46529, 46229, 47175, 47528, 46951, 47794, 47183, 46927, 47262, 47304, 47060, 47430, 47495, 46971, 46867, 47149, 46481, 47078, 47089, 46798, 46605, 46463, 46145, 46820, 45697, 45861, 45427, 46624, 45763, 47367, 47053, 46411, 46409, 46421, 45882, 47544, 46239, 46382, 46588, 45987, 46887, 46819, 47183, 46167, 46205, 46556, 46669, 46498, 46456, 45570, 45682, 46873, 45680, 45625, 45979, 46439, 46756, 46849, 46301, 45693, 46982, 45350, 46244, 46196, 46722, 47751, 48256, 46826, 47282, 47454, 47218, 47440, 46769, 46945, 46314, 46837, 47022, 46817],
