{
  "AcquisitionMatrixPE": 104,
  "AcquisitionNumber": 1,
  "AcquisitionTime": "16:20:24.980000",
  "BandwidthPerPixelPhaseEncode": 17.17,
  "BaseResolution": 104,
  "BodyPartExamined": "BRAIN",
  "CoilCombinationMethod": "Sum of Squares",
  "ConsistencyInfo": "N4_VE11C_LATEST_20160120",
  "ConversionSoftware": "dcm2niix",
  "ConversionSoftwareVersion": "v1.0.20220505",
  "DerivedVendorReportedEchoSpacing": 0.000560011,
  "DeviceSerialNumber": "167006",
  "DwellTime": 2.1e-06,
  "EchoTime": 0.037,
  "EchoTime1": 0.037,
  "EchoTime2": 0.001,
  "EchoTrainLength": 104,
  "EffectiveEchoSpacing": 0.000560011,
  "FlipAngle": 52,
  "HeudiconvVersion": "0.5.3.post811+g6206e14",
  "ImageComments": "Unaliased MB4/PE3/LB",
  "ImageOrientationPatientDICOM": [0.999128, 0.00465245, 0.041486, 0.0186609, 0.839181, -0.543531],
  "ImageOrientationText": "Tra>Cor(-33.0)>Sag(2.1)",
  "ImageType": [
    "ORIGINAL",
    "PRIMARY",
    "P",
    "MB",
    "ND",
    "MOSAIC",
    "PHASE"
],
  "ImagingFrequency": 123.259,
  "InPlanePhaseEncodingDirectionDICOM": "COL",
  "InstitutionAddress": "Chemin Queen-Mary 4565,Montreal,District,CA,H3W 1W5",
  "InstitutionName": "IUGM",
  "InstitutionalDepartmentName": "Department",
  "MRAcquisitionType": "2D",
  "MagneticFieldStrength": 3,
  "Manufacturer": "Siemens",
  "ManufacturersModelName": "Prisma_fit",
  "MatrixCoilMode": "SENSE",
  "Modality": "MR",
  "MultibandAccelerationFactor": 4,
  "PartialFourier": 1,
  "PatientPosition": "HFS",
  "PercentPhaseFOV": 100,
  "PercentSampling": 100,
  "PhaseEncodingDirection": "j",
  "PhaseEncodingSteps": 104,
  "PhaseResolution": 1,
  "PixelBandwidth": 2290,
  "ProcedureStepDescription": "games^mario3",
  "ProtocolName": "func_task-mario3_run-01",
  "PulseSequenceDetails": "%CustomerSeq%\\cmrr_mbep2d_bold",
  "ReceiveCoilActiveElements": "HC1-7;NC1,2",
  "ReceiveCoilName": "HeadNeck_64",
  "ReconMatrixPE": 104,
  "RepetitionTime": 1.49,
  "SAR": 0.0619517,
  "ScanOptions": "FS",
  "ScanningSequence": "EP",
  "SequenceName": "epfid2d1_104",
  "SequenceVariant": "SK\\SS",
  "SeriesDescription": "func_task-mario3_run-01",
  "SeriesNumber": 11,
  "ShimSetting": [622, -7187, -8873, 225, 23, -215, -2, 21],
  "SliceThickness": 2,
  "SliceTiming": [0, 0.785, 0.1, 0.8825, 0.1975, 0.98, 0.295, 1.0775, 0.3925, 1.1775, 0.49, 1.275, 0.5875, 1.3725, 0.6875, 0, 0.785, 0.1, 0.8825, 0.1975, 0.98, 0.295, 1.0775, 0.3925, 1.1775, 0.49, 1.275, 0.5875, 1.3725, 0.6875, 0, 0.785, 0.1, 0.8825, 0.1975, 0.98, 0.295, 1.0775, 0.3925, 1.1775, 0.49, 1.275, 0.5875, 1.3725, 0.6875, 0, 0.785, 0.1, 0.8825, 0.1975, 0.98, 0.295, 1.0775, 0.3925, 1.1775, 0.49, 1.275, 0.5875, 1.3725, 0.6875],
  "SoftwareVersions": "syngo MR E11",
  "SpacingBetweenSlices": 2,
  "StationName": "MRC35049",
  "TaskName": "mario3",
  "TotalReadoutTime": 0.0576811,
  "TxRefAmp": 284.32,
  "WipMemBlock": "2410f030-a484-4357-ae7c-6f04bb95500a||Sequence: R017 ve11c/master r/75a17815+; Jun 28 2022 16:32:11 by eja",
  "dcmmeta_affine": [
    [-1.9982565641403198, 0.03732188418507576, 0.07468599826097488, 103.40579986572266],
    [-0.009304900653660297, 1.6783627271652222, -1.0876635313034058, -46.9048957824707],
    [0.08297192305326462, 1.0870628356933594, 1.67672598361969, -89.04330444335938],
    [0.0, 0.0, 0.0, 1.0]
],
  "dcmmeta_reorient_transform": [
    [0.0, -1.0, 0.0, 103.0],
    [1.0, 0.0, 0.0, 0.0],
    [0.0, 0.0, 1.0, 0.0],
    [0.0, 0.0, 0.0, 1.0]
],
  "dcmmeta_shape": [104, 104, 60, 324],
  "dcmmeta_slice_dim": 2,
  "dcmmeta_version": 0.6,
  "global": {
    "const": {
      "AcquisitionMatrix": [104, 0, 0, 104],
      "AngioFlag": "N",
      "BitsAllocated": 16,
      "BitsStored": 16,
      "BodyPartExamined": "BRAIN",
      "Columns": 832,
      "EchoNumbers": 1,
      "EchoTime": 37.0,
      "EchoTrainLength": 104,
      "FlipAngle": 52.0,
      "HighBit": 15,
      "ImageOrientationPatient": [0.9991282548604, 0.00465245024183, 0.04148596203963, 0.01866094206303, 0.83918136335533, -0.5435314237819],
      "ImagePositionPatient": [-848.20049272637, -740.27748132592, 388.41326139493],
      "ImageType": [
        "ORIGINAL",
        "PRIMARY",
        "P",
        "MB",
        "ND",
        "MOSAIC"
],
      "ImagedNucleus": "1H",
      "ImagingFrequency": 123.258968,
      "InPlanePhaseEncodingDirection": "COL",
      "LargestImagePixelValue": 4095,
      "MRAcquisitionType": "2D",
      "MagneticFieldStrength": 3.0,
      "Manufacturer": "SIEMENS",
      "ManufacturerModelName": "Prisma_fit",
      "Modality": "MR",
      "NumberOfAverages": 1.0,
      "NumberOfPhaseEncodingSteps": 104,
      "PercentPhaseFieldOfView": 100.0,
      "PercentSampling": 100.0,
      "PerformedProcedureStepStartTime": "161716.389000",
      "PhotometricInterpretation": "MONOCHROME2",
      "PixelBandwidth": 2290.0,
      "PixelRepresentation": 0,
      "PixelSpacing": [2.0, 2.0],
      "ProtocolName": "func_task-mario3_run-01",
      "RepetitionTime": 1490.0,
      "RescaleIntercept": -4096.0,
      "RescaleSlope": 2.0,
      "RescaleType": "US",
      "Rows": 832,
      "SAR": 0.06195168817716,
      "SamplesPerPixel": 1,
      "ScanOptions": "FS",
      "ScanningSequence": "EP",
      "SequenceName": "epfid2d1_104",
      "SequenceVariant": [
        "SK",
        "SS"
],
      "SeriesDescription": "func_task-mario3_run-01",
      "SeriesNumber": 11,
      "SeriesTime": "162121.685000",
      "SliceLocation": -45.280758816488,
      "SliceThickness": 2.0,
      "SmallestImagePixelValue": 0,
      "SoftwareVersions": "syngo MR E11",
      "SpacingBetweenSlices": 1.9999999512387,
      "SpecificCharacterSet": "ISO_IR 100",
      "StudyID": "1",
      "StudyTime": "161716.323000",
      "TransmitCoilName": "Body",
      "VariableFlipAngleFlag": "N",
      "WindowCenterWidthExplanation": "Algo1",
      "dBdt": 0.0},
    "slices": {}
  },
  "time": {
    "samples": {
      "AcquisitionNumber": [1, 2, 3, 4, 5, 6, 7, 8, 9, 10, 11, 12, 13, 14, 15, 16, 17, 18, 19, 20, 21, 22, 23, 24, 25, 26, 27, 28, 29, 30, 31, 32, 33, 34, 35, 36, 37, 38, 39, 40, 41, 42, 43, 44, 45, 46, 47, 48, 49, 50, 51, 52, 53, 54, 55, 56, 57, 58, 59, 60, 61, 62, 63, 64, 65, 66, 67, 68, 69, 70, 71, 72, 73, 74, 75, 76, 77, 78, 79, 80, 81, 82, 83, 84, 85, 86, 87, 88, 89, 90, 91, 92, 93, 94, 95, 96, 97, 98, 99, 100, 101, 102, 103, 104, 105, 106, 107, 108, 109, 110, 111, 112, 113, 114, 115, 116, 117, 118, 119, 120, 121, 122, 123, 124, 125, 126, 127, 128, 129, 130, 131, 132, 133, 134, 135, 136, 137, 138, 139, 140, 141, 142, 143, 144, 145, 146, 147, 148, 149, 150, 151, 152, 153, 154, 155, 156, 157, 158, 159, 160, 161, 162, 163, 164, 165, 166, 167, 168, 169, 170, 171, 172, 173, 174, 175, 176, 177, 178, 179, 180, 181, 182, 183, 184, 185, 186, 187, 188, 189, 190, 191, 192, 193, 194, 195, 196, 197, 198, 199, 200, 201, 202, 203, 204, 205, 206, 207, 208, 209, 210, 211, 212, 213, 214, 215, 216, 217, 218, 219, 220, 221, 222, 223, 224, 225, 226, 227, 228, 229, 230, 231, 232, 233, 234, 235, 236, 237, 238, 239, 240, 241, 242, 243, 244, 245, 246, 247, 248, 249, 250, 251, 252, 253, 254, 255, 256, 257, 258, 259, 260, 261, 262, 263, 264, 265, 266, 267, 268, 269, 270, 271, 272, 273, 274, 275, 276, 277, 278, 279, 280, 281, 282, 283, 284, 285, 286, 287, 288, 289, 290, 291, 292, 293, 294, 295, 296, 297, 298, 299, 300, 301, 302, 303, 304, 305, 306, 307, 308, 309, 310, 311, 312, 313, 314, 315, 316, 317, 318, 319, 320, 321, 322, 323, 324],
      "AcquisitionTime": ["162024.980000", "162026.470000", "162027.960000", "162029.450000", "162030.940000", "162032.430000", "162033.920000", "162035.410000", "162036.900000", "162038.390000", "162039.880000", "162041.370000", "162042.860000", "162044.350000", "162045.840000", "162047.330000", "162048.820000", "162050.310000", "162051.800000", "162053.290000", "162054.780000", "162056.270000", "162057.760000", "162059.250000", "162100.740000", "162102.230000", "162103.720000", "162105.210000", "162106.700000", "162108.190000", "162109.680000", "162111.170000", "162112.660000", "162114.150000", "162115.640000", "162117.130000", "162118.620000", "162120.110000", "162121.600000", "162123.090000", "162124.580000", "162126.070000", "162127.560000", "162129.050000", "162130.540000", "162132.030000", "162133.520000", "162135.010000", "162136.500000", "162137.990000", "162139.480000", "162140.970000", "162142.460000", "162143.950000", "162145.440000", "162146.930000", "162148.420000", "162149.910000", "162151.400000", "162152.890000", "162154.380000", "162155.870000", "162157.360000", "162158.850000", "162200.340000", "162201.830000", "162203.320000", "162204.810000", "162206.300000", "162207.790000", "162209.280000", "162210.770000", "162212.260000", "162213.750000", "162215.240000", "162216.730000", "162218.220000", "162219.710000", "162221.200000", "162222.690000", "162224.180000", "162225.670000", "162227.160000", "162228.650000", "162230.140000", "162231.630000", "162233.120000", "162234.610000", "162236.100000", "162237.590000", "162239.080000", "162240.570000", "162242.060000", "162243.550000", "162245.040000", "162246.530000", "162248.020000", "162249.510000", "162251.000000", "162252.490000", "162253.980000", "162255.470000", "162256.960000", "162258.450000", "162259.940000", "162301.430000", "162302.920000", "162304.410000", "162305.900000", "162307.390000", "162308.880000", "162310.370000", "162311.860000", "162313.350000", "162314.840000", "162316.330000", "162317.820000", "162319.310000", "162320.800000", "162322.290000", "162323.780000", "162325.270000", "162326.760000", "162328.250000", "162329.740000", "162331.230000", "162332.720000", "162334.210000", "162335.700000", "162337.190000", "162338.680000", "162340.170000", "162341.660000", "162343.150000", "162344.640000", "162346.130000", "162347.620000", "162349.110000", "162350.600000", "162352.090000", "162353.580000", "162355.070000", "162356.560000", "162358.050000", "162359.540000", "162401.030000", "162402.520000", "162404.010000", "162405.500000", "162406.990000", "162408.480000", "162409.970000", "162411.460000", "162412.950000", "162414.440000", "162415.930000", "162417.420000", "162418.910000", "162420.400000", "162421.890000", "162423.380000", "162424.870000", "162426.360000", "162427.850000", "162429.340000", "162430.830000", "162432.320000", "162433.810000", "162435.300000", "162436.790000", "162438.280000", "162439.770000", "162441.260000", "162442.750000", "162444.240000", "162445.730000", "162447.220000", "162448.710000", "162450.200000", "162451.690000", "162453.180000", "162454.670000", "162456.160000", "162457.650000", "162459.140000", "162500.630000", "162502.120000", "162503.610000", "162505.100000", "162506.590000", "162508.080000", "162509.570000", "162511.060000", "162512.550000", "162514.040000", "162515.530000", "162517.020000", "162518.510000", "162520.000000", "162521.490000", "162522.980000", "162524.470000", "162525.960000", "162527.450000", "162528.940000", "162530.430000", "162531.920000", "162533.410000", "162534.900000", "162536.390000", "162537.880000", "162539.370000", "162540.860000", "162542.350000", "162543.840000", "162545.330000", "162546.820000", "162548.310000", "162549.800000", "162551.290000", "162552.780000", "162554.270000", "162555.760000", "162557.250000", "162558.740000", "162600.230000", "162601.720000", "162603.210000", "162604.700000", "162606.190000", "162607.680000", "162609.170000", "162610.660000", "162612.150000", "162613.640000", "162615.130000", "162616.620000", "162618.110000", "162619.600000", "162621.090000", "162622.580000", "162624.070000", "162625.560000", "162627.050000", "162628.540000", "162630.030000", "162631.520000", "162633.010000", "162634.500000", "162635.990000", "162637.480000", "162638.970000", "162640.460000", "162641.950000", "162643.440000", "162644.930000", "162646.420000", "162647.910000", "162649.400000", "162650.890000", "162652.380000", "162653.870000", "162655.360000", "162656.850000", "162658.340000", "162659.830000", "162701.320000", "162702.810000", "162704.300000", "162705.790000", "162707.280000", "162708.770000", "162710.260000", "162711.750000", "162713.240000", "162714.730000", "162716.220000", "162717.710000", "162719.200000", "162720.690000", "162722.180000", "162723.670000", "162725.160000", "162726.650000", "162728.140000", "162729.630000", "162731.120000", "162732.610000", "162734.100000", "162735.590000", "162737.080000", "162738.570000", "162740.060000", "162741.550000", "162743.040000", "162744.530000", "162746.020000", "162747.510000", "162749.000000", "162750.490000", "162751.980000", "162753.470000", "162754.960000", "162756.450000", "162757.940000", "162759.430000", "162800.920000", "162802.410000", "162803.900000", "162805.390000", "162806.880000", "162808.370000", "162809.860000", "162811.350000", "162812.840000", "162814.330000", "162815.820000", "162817.310000", "162818.800000", "162820.290000", "162821.780000", "162823.270000", "162824.760000", "162826.250000"],
      "ContentTime": ["162121.687000", "162121.690000", "162121.692000", "162121.695000", "162121.701000", "162121.703000", "162121.706000", "162142.879000", "162142.882000", "162142.884000", "162142.887000", "162142.889000", "162142.897000", "162142.899000", "162142.902000", "162142.904000", "162142.907000", "162142.917000", "162142.919000", "162142.922000", "162142.924000", "162142.927000", "162142.929000", "162142.932000", "162142.934000", "162142.936000", "162142.939000", "162201.713000", "162201.716000", "162201.719000", "162201.721000", "162201.731000", "162201.734000", "162201.737000", "162201.739000", "162201.742000", "162201.744000", "162201.747000", "162201.749000", "162201.751000", "162201.754000", "162201.756000", "162201.759000", "162201.761000", "162201.764000", "162201.766000", "162201.769000", "162201.771000", "162221.675000", "162221.678000", "162221.681000", "162221.683000", "162221.686000", "162221.688000", "162221.691000", "162221.693000", "162221.695000", "162221.698000", "162221.700000", "162221.703000", "162221.705000", "162221.709000", "162221.711000", "162221.714000", "162221.716000", "162221.719000", "162221.721000", "162221.724000", "162241.649000", "162241.652000", "162241.655000", "162241.657000", "162241.660000", "162241.662000", "162241.665000", "162241.673000", "162241.676000", "162241.678000", "162241.681000", "162241.683000", "162241.686000", "162241.688000", "162241.691000", "162241.693000", "162241.696000", "162241.699000", "162241.701000", "162241.704000", "162321.709000", "162321.724000", "162321.727000", "162321.730000", "162321.732000", "162321.735000", "162321.738000", "162321.740000", "162321.743000", "162321.745000", "162321.748000", "162321.750000", "162321.753000", "162321.755000", "162321.758000", "162321.760000", "162321.763000", "162321.765000", "162321.768000", "162321.770000", "162321.773000", "162321.775000", "162321.778000", "162321.781000", "162321.783000", "162321.785000", "162321.788000", "162321.791000", "162321.793000", "162321.796000", "162401.672000", "162401.676000", "162401.679000", "162401.681000", "162401.684000", "162401.687000", "162401.689000", "162401.692000", "162401.695000", "162401.698000", "162401.700000", "162401.703000", "162401.705000", "162401.708000", "162401.710000", "162401.713000", "162401.715000", "162401.718000", "162401.720000", "162401.723000", "162401.725000", "162401.728000", "162401.730000", "162401.733000", "162401.736000", "162401.738000", "162441.686000", "162441.688000", "162441.691000", "162441.693000", "162441.696000", "162441.698000", "162441.701000", "162441.703000", "162441.706000", "162441.708000", "162441.711000", "162441.713000", "162441.716000", "162441.718000", "162441.721000", "162441.723000", "162441.726000", "162441.728000", "162441.731000", "162441.733000", "162441.736000", "162441.738000", "162441.741000", "162441.743000", "162441.746000", "162441.749000", "162441.751000", "162521.671000", "162521.674000", "162521.676000", "162521.679000", "162521.681000", "162521.684000", "162521.686000", "162521.689000", "162521.691000", "162521.694000", "162521.696000", "162521.699000", "162521.701000", "162521.704000", "162521.706000", "162521.709000", "162521.711000", "162521.714000", "162521.716000", "162521.719000", "162521.722000", "162521.724000", "162521.727000", "162521.729000", "162521.732000", "162521.734000", "162521.737000", "162601.679000", "162601.682000", "162601.684000", "162601.687000", "162601.689000", "162601.692000", "162601.694000", "162601.697000", "162601.699000", "162601.702000", "162601.704000", "162601.707000", "162601.709000", "162601.712000", "162601.714000", "162601.717000", "162601.719000", "162601.722000", "162601.724000", "162601.727000", "162601.729000", "162601.732000", "162601.734000", "162601.737000", "162601.739000", "162601.742000", "162601.744000", "162641.665000", "162641.668000", "162641.670000", "162641.673000", "162641.675000", "162641.678000", "162641.680000", "162641.683000", "162641.685000", "162641.688000", "162641.690000", "162641.693000", "162641.695000", "162641.698000", "162641.700000", "162641.703000", "162641.705000", "162641.708000", "162641.710000", "162641.713000", "162641.715000", "162641.718000", "162641.720000", "162641.723000", "162641.725000", "162641.728000", "162641.730000", "162721.673000", "162721.676000", "162721.678000", "162721.681000", "162721.683000", "162721.686000", "162721.688000", "162721.691000", "162721.693000", "162721.696000", "162721.698000", "162721.701000", "162721.704000", "162721.706000", "162721.709000", "162721.711000", "162721.714000", "162721.716000", "162721.718000", "162721.721000", "162721.723000", "162721.726000", "162721.729000", "162721.731000", "162721.734000", "162721.736000", "162721.739000", "162801.659000", "162801.662000", "162801.664000", "162801.667000", "162801.669000", "162801.672000", "162801.674000", "162801.677000", "162801.679000", "162801.682000", "162801.684000", "162801.687000", "162801.689000", "162801.692000", "162801.694000", "162801.697000", "162801.699000", "162801.701000", "162801.704000", "162801.706000", "162801.709000", "162801.711000", "162801.714000", "162801.716000", "162801.719000", "162801.721000", "162829.644000", "162829.647000", "162829.649000", "162829.652000", "162829.654000", "162829.657000", "162829.659000", "162829.662000", "162829.664000", "162829.667000", "162829.669000", "162829.672000", "162829.674000", "162829.677000", "162829.679000", "162829.682000", "162829.684000", "162829.687000", "162829.689000"],
      "InstanceCreationTime": ["162121.687000", "162121.690000", "162121.692000", "162121.695000", "162121.701000", "162121.703000", "162121.706000", "162142.879000", "162142.882000", "162142.884000", "162142.887000", "162142.889000", "162142.897000", "162142.899000", "162142.902000", "162142.904000", "162142.907000", "162142.917000", "162142.919000", "162142.922000", "162142.924000", "162142.927000", "162142.929000", "162142.932000", "162142.934000", "162142.936000", "162142.939000", "162201.713000", "162201.716000", "162201.719000", "162201.721000", "162201.731000", "162201.734000", "162201.737000", "162201.739000", "162201.742000", "162201.744000", "162201.747000", "162201.749000", "162201.751000", "162201.754000", "162201.756000", "162201.759000", "162201.761000", "162201.764000", "162201.766000", "162201.769000", "162201.771000", "162221.675000", "162221.678000", "162221.681000", "162221.683000", "162221.686000", "162221.688000", "162221.691000", "162221.693000", "162221.695000", "162221.698000", "162221.700000", "162221.703000", "162221.705000", "162221.709000", "162221.711000", "162221.714000", "162221.716000", "162221.719000", "162221.721000", "162221.724000", "162241.649000", "162241.652000", "162241.655000", "162241.657000", "162241.660000", "162241.662000", "162241.665000", "162241.673000", "162241.676000", "162241.678000", "162241.681000", "162241.683000", "162241.686000", "162241.688000", "162241.691000", "162241.693000", "162241.696000", "162241.699000", "162241.701000", "162241.704000", "162321.709000", "162321.724000", "162321.727000", "162321.730000", "162321.732000", "162321.735000", "162321.738000", "162321.740000", "162321.743000", "162321.745000", "162321.748000", "162321.750000", "162321.753000", "162321.755000", "162321.758000", "162321.760000", "162321.763000", "162321.765000", "162321.768000", "162321.770000", "162321.773000", "162321.775000", "162321.778000", "162321.781000", "162321.783000", "162321.785000", "162321.788000", "162321.791000", "162321.793000", "162321.796000", "162401.672000", "162401.676000", "162401.679000", "162401.681000", "162401.684000", "162401.687000", "162401.689000", "162401.692000", "162401.695000", "162401.698000", "162401.700000", "162401.703000", "162401.705000", "162401.708000", "162401.710000", "162401.713000", "162401.715000", "162401.718000", "162401.720000", "162401.723000", "162401.725000", "162401.728000", "162401.730000", "162401.733000", "162401.736000", "162401.738000", "162441.686000", "162441.688000", "162441.691000", "162441.693000", "162441.696000", "162441.698000", "162441.701000", "162441.703000", "162441.706000", "162441.708000", "162441.711000", "162441.713000", "162441.716000", "162441.718000", "162441.721000", "162441.723000", "162441.726000", "162441.728000", "162441.731000", "162441.733000", "162441.736000", "162441.738000", "162441.741000", "162441.743000", "162441.746000", "162441.749000", "162441.751000", "162521.671000", "162521.674000", "162521.676000", "162521.679000", "162521.681000", "162521.684000", "162521.686000", "162521.689000", "162521.691000", "162521.694000", "162521.696000", "162521.699000", "162521.701000", "162521.704000", "162521.706000", "162521.709000", "162521.711000", "162521.714000", "162521.716000", "162521.719000", "162521.722000", "162521.724000", "162521.727000", "162521.729000", "162521.732000", "162521.734000", "162521.737000", "162601.679000", "162601.682000", "162601.684000", "162601.687000", "162601.689000", "162601.692000", "162601.694000", "162601.697000", "162601.699000", "162601.702000", "162601.704000", "162601.707000", "162601.709000", "162601.712000", "162601.714000", "162601.717000", "162601.719000", "162601.722000", "162601.724000", "162601.727000", "162601.729000", "162601.732000", "162601.734000", "162601.737000", "162601.739000", "162601.742000", "162601.744000", "162641.665000", "162641.668000", "162641.670000", "162641.673000", "162641.675000", "162641.678000", "162641.680000", "162641.683000", "162641.685000", "162641.688000", "162641.690000", "162641.693000", "162641.695000", "162641.698000", "162641.700000", "162641.703000", "162641.705000", "162641.708000", "162641.710000", "162641.713000", "162641.715000", "162641.718000", "162641.720000", "162641.723000", "162641.725000", "162641.728000", "162641.730000", "162721.673000", "162721.676000", "162721.678000", "162721.681000", "162721.683000", "162721.686000", "162721.688000", "162721.691000", "162721.693000", "162721.696000", "162721.698000", "162721.701000", "162721.704000", "162721.706000", "162721.709000", "162721.711000", "162721.714000", "162721.716000", "162721.718000", "162721.721000", "162721.723000", "162721.726000", "162721.729000", "162721.731000", "162721.734000", "162721.736000", "162721.739000", "162801.659000", "162801.662000", "162801.664000", "162801.667000", "162801.669000", "162801.672000", "162801.674000", "162801.677000", "162801.679000", "162801.682000", "162801.684000", "162801.687000", "162801.689000", "162801.692000", "162801.694000", "162801.697000", "162801.699000", "162801.701000", "162801.704000", "162801.706000", "162801.709000", "162801.711000", "162801.714000", "162801.716000", "162801.719000", "162801.721000", "162829.644000", "162829.647000", "162829.649000", "162829.652000", "162829.654000", "162829.657000", "162829.659000", "162829.662000", "162829.664000", "162829.667000", "162829.669000", "162829.672000", "162829.674000", "162829.677000", "162829.679000", "162829.682000", "162829.684000", "162829.687000", "162829.689000"],
      "InstanceNumber": [1, 2, 3, 4, 5, 6, 7, 8, 9, 10, 11, 12, 13, 14, 15, 16, 17, 18, 19, 20, 21, 22, 23, 24, 25, 26, 27, 28, 29, 30, 31, 32, 33, 34, 35, 36, 37, 38, 39, 40, 41, 42, 43, 44, 45, 46, 47, 48, 49, 50, 51, 52, 53, 54, 55, 56, 57, 58, 59, 60, 61, 62, 63, 64, 65, 66, 67, 68, 69, 70, 71, 72, 73, 74, 75, 76, 77, 78, 79, 80, 81, 82, 83, 84, 85, 86, 87, 88, 89, 90, 91, 92, 93, 94, 95, 96, 97, 98, 99, 100, 101, 102, 103, 104, 105, 106, 107, 108, 109, 110, 111, 112, 113, 114, 115, 116, 117, 118, 119, 120, 121, 122, 123, 124, 125, 126, 127, 128, 129, 130, 131, 132, 133, 134, 135, 136, 137, 138, 139, 140, 141, 142, 143, 144, 145, 146, 147, 148, 149, 150, 151, 152, 153, 154, 155, 156, 157, 158, 159, 160, 161, 162, 163, 164, 165, 166, 167, 168, 169, 170, 171, 172, 173, 174, 175, 176, 177, 178, 179, 180, 181, 182, 183, 184, 185, 186, 187, 188, 189, 190, 191, 192, 193, 194, 195, 196, 197, 198, 199, 200, 201, 202, 203, 204, 205, 206, 207, 208, 209, 210, 211, 212, 213, 214, 215, 216, 217, 218, 219, 220, 221, 222, 223, 224, 225, 226, 227, 228, 229, 230, 231, 232, 233, 234, 235, 236, 237, 238, 239, 240, 241, 242, 243, 244, 245, 246, 247, 248, 249, 250, 251, 252, 253, 254, 255, 256, 257, 258, 259, 260, 261, 262, 263, 264, 265, 266, 267, 268, 269, 270, 271, 272, 273, 274, 275, 276, 277, 278, 279, 280, 281, 282, 283, 284, 285, 286, 287, 288, 289, 290, 291, 292, 293, 294, 295, 296, 297, 298, 299, 300, 301, 302, 303, 304, 305, 306, 307, 308, 309, 310, 311, 312, 313, 314, 315, 316, 317, 318, 319, 320, 321, 322, 323, 324],
      "WindowCenter": [4744.0, 4752.0, 4746.0, 4746.0, 4754.0, 4750.0, 4746.0, 4756.0, 4788.0, 4758.0, 4736.0, 4734.0, 4754.0, 4732.0, 4736.0, 4746.0, 4758.0, 4762.0, 4764.0, 4756.0, 4786.0, 4796.0, 4752.0, 4742.0, 4754.0, 4752.0, 4734.0, 4734.0, 4740.0, 4750.0, 4764.0, 4762.0, 4754.0, 4746.0, 4740.0, 4740.0, 4738.0, 4744.0, 4744.0, 4754.0, 4760.0, 4760.0, 4756.0, 4752.0, 4742.0, 4742.0, 4740.0, 4742.0, 4744.0, 4750.0, 4744.0, 4744.0, 4752.0, 4746.0, 4748.0, 4748.0, 4750.0, 4794.0, 4802.0, 4764.0, 4718.0, 4734.0, 4756.0, 4754.0, 4736.0, 4742.0, 4746.0, 4746.0, 4748.0, 4760.0, 4760.0, 4758.0, 4786.0, 4752.0, 4744.0, 4740.0, 4738.0, 4746.0, 4744.0, 4748.0, 4750.0, 4748.0, 4748.0, 4748.0, 4746.0, 4746.0, 4744.0, 4754.0, 4748.0, 4754.0, 4748.0, 4750.0, 4750.0, 4746.0, 4756.0, 4746.0, 4746.0, 4746.0, 4748.0, 4748.0, 4758.0, 4754.0, 4752.0, 4758.0, 4748.0, 4744.0, 4746.0, 4742.0, 4744.0, 4746.0, 4752.0, 4748.0, 4750.0, 4758.0, 4752.0, 4752.0, 4752.0, 4748.0, 4750.0, 4748.0, 4746.0, 4746.0, 4746.0, 4748.0, 4748.0, 4752.0, 4758.0, 4758.0, 4758.0, 4760.0, 4746.0, 4740.0, 4740.0, 4742.0, 4748.0, 4750.0, 4780.0, 4760.0, 4756.0, 4758.0, 4748.0, 4750.0, 4744.0, 4742.0, 4742.0, 4740.0, 4752.0, 4750.0, 4752.0, 4754.0, 4756.0, 4762.0, 4758.0, 4752.0, 4744.0, 4746.0, 4742.0, 4746.0, 4754.0, 4752.0, 4754.0, 4756.0, 4756.0, 4758.0, 4752.0, 4752.0, 4752.0, 4750.0, 4752.0, 4744.0, 4752.0, 4748.0, 4748.0, 4756.0, 4784.0, 4806.0, 4806.0, 4764.0, 4746.0, 4736.0, 4788.0, 4794.0, 4760.0, 4742.0, 4740.0, 4738.0, 4748.0, 4752.0, 4794.0, 4798.0, 4770.0, 4762.0, 4748.0, 4740.0, 4738.0, 4738.0, 4736.0, 4742.0, 4754.0, 4760.0, 4760.0, 4748.0, 4750.0, 4744.0, 4754.0, 4750.0, 4750.0, 4748.0, 4746.0, 4752.0, 4754.0, 4748.0, 4754.0, 4750.0, 4746.0, 4746.0, 4752.0, 4750.0, 4758.0, 4752.0, 4758.0, 4748.0, 4750.0, 4748.0, 4746.0, 4754.0, 4746.0, 4750.0, 4756.0, 4786.0, 4758.0, 4748.0, 4746.0, 4746.0, 4746.0, 4746.0, 4746.0, 4756.0, 4756.0, 4762.0, 4760.0, 4756.0, 4746.0, 4746.0, 4744.0, 4744.0, 4750.0, 4750.0, 4754.0, 4752.0, 4750.0, 4750.0, 4752.0, 4748.0, 4748.0, 4750.0, 4758.0, 4754.0, 4748.0, 4756.0, 4748.0, 4748.0, 4752.0, 4750.0, 4748.0, 4750.0, 4752.0, 4762.0, 4752.0, 4750.0, 4744.0, 4746.0, 4744.0, 4744.0, 4742.0, 4758.0, 4754.0, 4754.0, 4750.0, 4748.0, 4742.0, 4740.0, 4738.0, 4746.0, 4760.0, 4754.0, 4786.0, 4758.0, 4762.0, 4754.0, 4750.0, 4744.0, 4744.0, 4746.0, 4740.0, 4746.0, 4756.0, 4760.0, 4788.0, 4762.0, 4764.0, 4782.0, 4742.0, 4736.0, 4736.0, 4738.0, 4736.0, 4742.0, 4748.0, 4748.0, 4750.0, 4750.0, 4750.0, 4748.0, 4760.0, 4742.0, 4752.0, 4740.0, 4752.0, 4744.0, 4756.0, 4750.0, 4750.0, 4748.0],
