{
  "AcquisitionMatrixPE": 104,
  "AcquisitionNumber": 1,
  "AcquisitionTime": "16:39:39.005000",
  "BandwidthPerPixelPhaseEncode": 17.17,
  "BaseResolution": 104,
  "BodyPartExamined": "BRAIN",
  "CoilCombinationMethod": "Sum of Squares",
  "ConsistencyInfo": "N4_VE11C_LATEST_20160120",
  "ConversionSoftware": "dcm2niix",
  "ConversionSoftwareVersion": "v1.0.20220505",
  "DerivedVendorReportedEchoSpacing": 0.000560011,
  "DeviceSerialNumber": "167006",
  "DwellTime": 2.1e-06,
  "EchoTime": 0.037,
  "EchoTrainLength": 104,
  "EffectiveEchoSpacing": 0.000560011,
  "FlipAngle": 52,
  "HeudiconvVersion": "0.5.3.post811+g6206e14",
  "ImageComments": "Unaliased MB4/PE3/LB",
  "ImageOrientationPatientDICOM": [0.999128, 0.00465245, 0.041486, 0.0186609, 0.839181, -0.543531],
  "ImageOrientationText": "Tra>Cor(-33.0)>Sag(2.1)",
  "ImageType": [
    "ORIGINAL",
    "PRIMARY",
    "M",
    "MB",
    "ND",
    "MOSAIC"
],
  "ImagingFrequency": 123.259,
  "InPlanePhaseEncodingDirectionDICOM": "COL",
  "InstitutionAddress": "Chemin Queen-Mary 4565,Montreal,District,CA,H3W 1W5",
  "InstitutionName": "IUGM",
  "InstitutionalDepartmentName": "Department",
  "MRAcquisitionType": "2D",
  "MagneticFieldStrength": 3,
  "Manufacturer": "Siemens",
  "ManufacturersModelName": "Prisma_fit",
  "MatrixCoilMode": "SENSE",
  "Modality": "MR",
  "MultibandAccelerationFactor": 4,
  "PartialFourier": 1,
  "PatientPosition": "HFS",
  "PercentPhaseFOV": 100,
  "PercentSampling": 100,
  "PhaseEncodingDirection": "j",
  "PhaseEncodingSteps": 104,
  "PhaseResolution": 1,
  "PixelBandwidth": 2290,
  "ProcedureStepDescription": "games^mario3",
  "ProtocolName": "func_task-mario3_run-03",
  "PulseSequenceDetails": "%CustomerSeq%\\cmrr_mbep2d_bold",
  "ReceiveCoilActiveElements": "HC1-7;NC1,2",
  "ReceiveCoilName": "HeadNeck_64",
  "ReconMatrixPE": 104,
  "RepetitionTime": 1.49,
  "SAR": 0.0619517,
  "ScanOptions": "FS",
  "ScanningSequence": "EP",
  "SequenceName": "epfid2d1_104",
  "SequenceVariant": "SK\\SS",
  "SeriesDescription": "func_task-mario3_run-03",
  "SeriesNumber": 16,
  "ShimSetting": [622, -7187, -8873, 225, 23, -215, -2, 21],
  "SliceThickness": 2,
  "SliceTiming": [0, 0.7825, 0.0975, 0.8825, 0.195, 0.98, 0.2925, 1.0775, 0.3925, 1.175, 0.49, 1.2725, 0.5875, 1.37, 0.685, 0, 0.7825, 0.0975, 0.8825, 0.195, 0.98, 0.2925, 1.0775, 0.3925, 1.175, 0.49, 1.2725, 0.5875, 1.37, 0.685, 0, 0.7825, 0.0975, 0.8825, 0.195, 0.98, 0.2925, 1.0775, 0.3925, 1.175, 0.49, 1.2725, 0.5875, 1.37, 0.685, 0, 0.7825, 0.0975, 0.8825, 0.195, 0.98, 0.2925, 1.0775, 0.3925, 1.175, 0.49, 1.2725, 0.5875, 1.37, 0.685],
  "SoftwareVersions": "syngo MR E11",
  "SpacingBetweenSlices": 2,
  "StationName": "MRC35049",
  "TaskName": "mario3",
  "TotalReadoutTime": 0.0576811,
  "TxRefAmp": 284.32,
  "WipMemBlock": "1001c8ee-7f43-4e78-8e96-8491b44b7da9||Sequence: R017 ve11c/master r/75a17815+; Jun 28 2022 16:32:11 by eja",
  "dcmmeta_affine": [
    [-1.9982565641403198, 0.03732188418507576, 0.07468599826097488, 103.40579986572266],
    [-0.009304900653660297, 1.6783627271652222, -1.0876635313034058, -46.9048957824707],
    [0.08297192305326462, 1.0870628356933594, 1.67672598361969, -89.04330444335938],
    [0.0, 0.0, 0.0, 1.0]
],
  "dcmmeta_reorient_transform": [
    [0.0, -1.0, 0.0, 103.0],
    [1.0, 0.0, 0.0, 0.0],
    [0.0, 0.0, 1.0, 0.0],
    [0.0, 0.0, 0.0, 1.0]
],
  "dcmmeta_shape": [104, 104, 60, 356],
  "dcmmeta_slice_dim": 2,
  "dcmmeta_version": 0.6,
  "global": {
    "const": {
      "AcquisitionMatrix": [104, 0, 0, 104],
      "AngioFlag": "N",
      "BitsAllocated": 16,
      "BitsStored": 16,
      "BodyPartExamined": "BRAIN",
      "Columns": 832,
      "EchoNumbers": 1,
      "EchoTime": 37.0,
      "EchoTrainLength": 104,
      "FlipAngle": 52.0,
      "HighBit": 15,
      "ImageOrientationPatient": [0.9991282548604, 0.00465245024183, 0.04148596203963, 0.01866094206303, 0.83918136335533, -0.5435314237819],
      "ImagePositionPatient": [-848.20049272637, -740.27748132592, 388.41326139493],
      "ImageType": [
        "ORIGINAL",
        "PRIMARY",
        "M",
        "MB",
        "ND",
        "MOSAIC"
],
      "ImagedNucleus": "1H",
      "ImagingFrequency": 123.258976,
      "InPlanePhaseEncodingDirection": "COL",
      "MRAcquisitionType": "2D",
      "MagneticFieldStrength": 3.0,
      "Manufacturer": "SIEMENS",
      "ManufacturerModelName": "Prisma_fit",
      "Modality": "MR",
      "NumberOfAverages": 1.0,
      "NumberOfPhaseEncodingSteps": 104,
      "PercentPhaseFieldOfView": 100.0,
      "PercentSampling": 100.0,
      "PerformedProcedureStepStartTime": "161716.389000",
      "PhotometricInterpretation": "MONOCHROME2",
      "PixelBandwidth": 2290.0,
      "PixelRepresentation": 0,
      "PixelSpacing": [2.0, 2.0],
      "ProtocolName": "func_task-mario3_run-03",
      "RepetitionTime": 1490.0,
      "Rows": 832,
      "SAR": 0.06195168817716,
      "SamplesPerPixel": 1,
      "ScanOptions": "FS",
      "ScanningSequence": "EP",
      "SequenceName": "epfid2d1_104",
      "SequenceVariant": [
        "SK",
        "SS"
],
      "SeriesDescription": "func_task-mario3_run-03",
      "SeriesNumber": 16,
      "SeriesTime": "164041.586000",
      "SliceLocation": -45.280758816488,
      "SliceThickness": 2.0,
      "SmallestImagePixelValue": 0,
      "SoftwareVersions": "syngo MR E11",
      "SpacingBetweenSlices": 1.9999999512387,
      "SpecificCharacterSet": "ISO_IR 100",
      "StudyID": "1",
      "StudyTime": "161716.323000",
      "TransmitCoilName": "Body",
      "VariableFlipAngleFlag": "N",
      "WindowCenterWidthExplanation": "Algo1",
      "dBdt": 0.0},
    "slices": {}
  },
  "time": {
    "samples": {
      "AcquisitionNumber": [1, 2, 3, 4, 5, 6, 7, 8, 9, 10, 11, 12, 13, 14, 15, 16, 17, 18, 19, 20, 21, 22, 23, 24, 25, 26, 27, 28, 29, 30, 31, 32, 33, 34, 35, 36, 37, 38, 39, 40, 41, 42, 43, 44, 45, 46, 47, 48, 49, 50, 51, 52, 53, 54, 55, 56, 57, 58, 59, 60, 61, 62, 63, 64, 65, 66, 67, 68, 69, 70, 71, 72, 73, 74, 75, 76, 77, 78, 79, 80, 81, 82, 83, 84, 85, 86, 87, 88, 89, 90, 91, 92, 93, 94, 95, 96, 97, 98, 99, 100, 101, 102, 103, 104, 105, 106, 107, 108, 109, 110, 111, 112, 113, 114, 115, 116, 117, 118, 119, 120, 121, 122, 123, 124, 125, 126, 127, 128, 129, 130, 131, 132, 133, 134, 135, 136, 137, 138, 139, 140, 141, 142, 143, 144, 145, 146, 147, 148, 149, 150, 151, 152, 153, 154, 155, 156, 157, 158, 159, 160, 161, 162, 163, 164, 165, 166, 167, 168, 169, 170, 171, 172, 173, 174, 175, 176, 177, 178, 179, 180, 181, 182, 183, 184, 185, 186, 187, 188, 189, 190, 191, 192, 193, 194, 195, 196, 197, 198, 199, 200, 201, 202, 203, 204, 205, 206, 207, 208, 209, 210, 211, 212, 213, 214, 215, 216, 217, 218, 219, 220, 221, 222, 223, 224, 225, 226, 227, 228, 229, 230, 231, 232, 233, 234, 235, 236, 237, 238, 239, 240, 241, 242, 243, 244, 245, 246, 247, 248, 249, 250, 251, 252, 253, 254, 255, 256, 257, 258, 259, 260, 261, 262, 263, 264, 265, 266, 267, 268, 269, 270, 271, 272, 273, 274, 275, 276, 277, 278, 279, 280, 281, 282, 283, 284, 285, 286, 287, 288, 289, 290, 291, 292, 293, 294, 295, 296, 297, 298, 299, 300, 301, 302, 303, 304, 305, 306, 307, 308, 309, 310, 311, 312, 313, 314, 315, 316, 317, 318, 319, 320, 321, 322, 323, 324, 325, 326, 327, 328, 329, 330, 331, 332, 333, 334, 335, 336, 337, 338, 339, 340, 341, 342, 343, 344, 345, 346, 347, 348, 349, 350, 351, 352, 353, 354, 355, 356],
      "AcquisitionTime": ["163939.005000", "163940.495000", "163941.985000", "163943.475000", "163944.965000", "163946.455000", "163947.945000", "163949.435000", "163950.925000", "163952.415000", "163953.905000", "163955.395000", "163956.885000", "163958.375000", "163959.865000", "164001.355000", "164002.845000", "164004.335000", "164005.825000", "164007.315000", "164008.805000", "164010.295000", "164011.785000", "164013.275000", "164014.765000", "164016.255000", "164017.745000", "164019.235000", "164020.725000", "164022.215000", "164023.705000", "164025.195000", "164026.685000", "164028.175000", "164029.665000", "164031.155000", "164032.645000", "164034.135000", "164035.625000", "164037.115000", "164038.605000", "164040.095000", "164041.585000", "164043.075000", "164044.565000", "164046.055000", "164047.545000", "164049.035000", "164050.525000", "164052.015000", "164053.505000", "164054.995000", "164056.485000", "164057.975000", "164059.465000", "164100.955000", "164102.445000", "164103.935000", "164105.425000", "164106.915000", "164108.405000", "164109.895000", "164111.385000", "164112.875000", "164114.365000", "164115.855000", "164117.345000", "164118.835000", "164120.325000", "164121.815000", "164123.305000", "164124.795000", "164126.285000", "164127.775000", "164129.265000", "164130.755000", "164132.245000", "164133.735000", "164135.225000", "164136.715000", "164138.205000", "164139.695000", "164141.185000", "164142.675000", "164144.165000", "164145.655000", "164147.145000", "164148.635000", "164150.125000", "164151.615000", "164153.105000", "164154.595000", "164156.085000", "164157.575000", "164159.065000", "164200.555000", "164202.045000", "164203.535000", "164205.025000", "164206.515000", "164208.005000", "164209.495000", "164210.985000", "164212.475000", "164213.965000", "164215.455000", "164216.945000", "164218.435000", "164219.925000", "164221.415000", "164222.905000", "164224.395000", "164225.885000", "164227.375000", "164228.865000", "164230.355000", "164231.845000", "164233.335000", "164234.825000", "164236.315000", "164237.805000", "164239.295000", "164240.785000", "164242.275000", "164243.765000", "164245.255000", "164246.745000", "164248.235000", "164249.725000", "164251.215000", "164252.705000", "164254.195000", "164255.685000", "164257.175000", "164258.665000", "164300.155000", "164301.645000", "164303.135000", "164304.625000", "164306.115000", "164307.605000", "164309.095000", "164310.585000", "164312.075000", "164313.565000", "164315.055000", "164316.545000", "164318.035000", "164319.525000", "164321.015000", "164322.505000", "164323.995000", "164325.485000", "164326.975000", "164328.465000", "164329.955000", "164331.445000", "164332.935000", "164334.425000", "164335.915000", "164337.405000", "164338.895000", "164340.385000", "164341.875000", "164343.365000", "164344.855000", "164346.345000", "164347.835000", "164349.325000", "164350.815000", "164352.305000", "164353.795000", "164355.285000", "164356.775000", "164358.265000", "164359.755000", "164401.245000", "164402.735000", "164404.225000", "164405.715000", "164407.205000", "164408.695000", "164410.185000", "164411.675000", "164413.165000", "164414.655000", "164416.145000", "164417.635000", "164419.125000", "164420.615000", "164422.105000", "164423.595000", "164425.085000", "164426.575000", "164428.065000", "164429.555000", "164431.045000", "164432.535000", "164434.025000", "164435.515000", "164437.005000", "164438.495000", "164439.985000", "164441.475000", "164442.965000", "164444.455000", "164445.945000", "164447.435000", "164448.925000", "164450.415000", "164451.905000", "164453.395000", "164454.885000", "164456.375000", "164457.865000", "164459.355000", "164500.845000", "164502.335000", "164503.825000", "164505.315000", "164506.805000", "164508.295000", "164509.785000", "164511.275000", "164512.765000", "164514.255000", "164515.745000", "164517.235000", "164518.725000", "164520.215000", "164521.705000", "164523.195000", "164524.685000", "164526.175000", "164527.665000", "164529.155000", "164530.645000", "164532.135000", "164533.625000", "164535.115000", "164536.605000", "164538.095000", "164539.585000", "164541.075000", "164542.565000", "164544.055000", "164545.545000", "164547.035000", "164548.525000", "164550.015000", "164551.505000", "164552.995000", "164554.485000", "164555.975000", "164557.465000", "164558.955000", "164600.445000", "164601.935000", "164603.425000", "164604.915000", "164606.405000", "164607.895000", "164609.385000", "164610.875000", "164612.365000", "164613.855000", "164615.345000", "164616.835000", "164618.325000", "164619.815000", "164621.305000", "164622.795000", "164624.285000", "164625.775000", "164627.265000", "164628.755000", "164630.245000", "164631.735000", "164633.225000", "164634.715000", "164636.205000", "164637.695000", "164639.185000", "164640.675000", "164642.165000", "164643.655000", "164645.145000", "164646.635000", "164648.125000", "164649.615000", "164651.105000", "164652.595000", "164654.085000", "164655.575000", "164657.065000", "164658.555000", "164700.045000", "164701.535000", "164703.025000", "164704.515000", "164706.005000", "164707.495000", "164708.985000", "164710.475000", "164711.965000", "164713.455000", "164714.945000", "164716.435000", "164717.925000", "164719.415000", "164720.905000", "164722.395000", "164723.885000", "164725.375000", "164726.865000", "164728.355000", "164729.845000", "164731.335000", "164732.825000", "164734.315000", "164735.805000", "164737.295000", "164738.785000", "164740.275000", "164741.765000", "164743.255000", "164744.745000", "164746.235000", "164747.725000", "164749.215000", "164750.705000", "164752.195000", "164753.685000", "164755.175000", "164756.665000", "164758.155000", "164759.645000", "164801.135000", "164802.625000", "164804.115000", "164805.605000", "164807.095000", "164808.585000", "164810.075000", "164811.565000", "164813.055000", "164814.545000", "164816.035000", "164817.525000", "164819.015000", "164820.505000", "164821.995000", "164823.485000", "164824.975000", "164826.465000", "164827.955000"],
      "ContentTime": ["164041.590000", "164041.594000", "164041.597000", "164041.600000", "164041.610000", "164041.613000", "164041.634000", "164041.637000", "164041.640000", "164041.644000", "164041.647000", "164041.650000", "164041.653000", "164041.657000", "164101.556000", "164101.560000", "164101.563000", "164101.566000", "164101.570000", "164101.573000", "164101.576000", "164101.579000", "164101.583000", "164101.586000", "164101.589000", "164101.593000", "164101.596000", "164101.599000", "164101.603000", "164101.607000", "164101.611000", "164101.616000", "164101.619000", "164101.634000", "164121.555000", "164121.559000", "164121.562000", "164121.565000", "164121.569000", "164121.572000", "164121.575000", "164121.578000", "164121.582000", "164121.585000", "164121.588000", "164121.591000", "164121.595000", "164121.598000", "164121.610000", "164121.613000", "164121.616000", "164121.619000", "164121.623000", "164121.626000", "164121.629000", "164141.555000", "164141.559000", "164141.562000", "164141.565000", "164141.569000", "164141.572000", "164141.575000", "164141.578000", "164141.582000", "164141.585000", "164141.588000", "164141.591000", "164141.595000", "164141.598000", "164141.601000", "164141.604000", "164141.607000", "164141.611000", "164141.614000", "164141.617000", "164201.555000", "164201.559000", "164201.562000", "164201.566000", "164201.575000", "164201.578000", "164201.581000", "164201.584000", "164201.588000", "164201.591000", "164201.595000", "164201.598000", "164201.601000", "164201.604000", "164201.608000", "164201.611000", "164201.614000", "164201.618000", "164201.621000", "164201.624000", "164241.556000", "164241.560000", "164241.563000", "164241.566000", "164241.570000", "164241.573000", "164241.577000", "164241.580000", "164241.583000", "164241.597000", "164241.600000", "164241.604000", "164241.607000", "164241.610000", "164241.614000", "164241.617000", "164241.620000", "164241.624000", "164241.627000", "164241.630000", "164241.633000", "164241.637000", "164241.640000", "164241.643000", "164241.646000", "164241.650000", "164321.556000", "164321.560000", "164321.563000", "164321.567000", "164321.570000", "164321.573000", "164321.577000", "164321.580000", "164321.583000", "164321.587000", "164321.590000", "164321.593000", "164321.596000", "164321.600000", "164321.603000", "164321.606000", "164321.610000", "164321.613000", "164321.616000", "164321.619000", "164321.623000", "164321.626000", "164321.629000", "164321.633000", "164321.636000", "164321.639000", "164321.643000", "164401.555000", "164401.559000", "164401.562000", "164401.565000", "164401.569000", "164401.572000", "164401.576000", "164401.579000", "164401.583000", "164401.586000", "164401.590000", "164401.593000", "164401.596000", "164401.599000", "164401.603000", "164401.606000", "164401.610000", "164401.613000", "164401.616000", "164401.620000", "164401.623000", "164401.626000", "164401.630000", "164401.633000", "164401.636000", "164401.639000", "164401.643000", "164441.555000", "164441.559000", "164441.562000", "164441.565000", "164441.569000", "164441.572000", "164441.575000", "164441.579000", "164441.595000", "164441.598000", "164441.601000", "164441.604000", "164441.608000", "164441.611000", "164441.614000", "164441.618000", "164441.621000", "164441.624000", "164441.627000", "164441.631000", "164441.634000", "164441.637000", "164441.641000", "164441.644000", "164441.648000", "164441.651000", "164441.654000", "164521.556000", "164521.560000", "164521.572000", "164521.575000", "164521.579000", "164521.582000", "164521.585000", "164521.589000", "164521.592000", "164521.595000", "164521.599000", "164521.602000", "164521.605000", "164521.609000", "164521.617000", "164521.621000", "164521.624000", "164521.627000", "164521.631000", "164521.634000", "164521.637000", "164521.641000", "164521.644000", "164521.647000", "164521.651000", "164521.654000", "164521.657000", "164601.555000", "164601.559000", "164601.562000", "164601.566000", "164601.569000", "164601.572000", "164601.576000", "164601.579000", "164601.582000", "164601.586000", "164601.589000", "164601.592000", "164601.596000", "164601.599000", "164601.602000", "164601.605000", "164601.609000", "164601.612000", "164601.615000", "164601.619000", "164601.622000", "164601.625000", "164601.629000", "164601.632000", "164601.635000", "164601.638000", "164601.642000", "164641.555000", "164641.559000", "164641.563000", "164641.567000", "164641.570000", "164641.574000", "164641.578000", "164641.581000", "164641.585000", "164641.589000", "164641.593000", "164641.596000", "164641.600000", "164641.603000", "164641.606000", "164641.610000", "164641.613000", "164641.616000", "164641.620000", "164641.623000", "164641.626000", "164641.629000", "164641.633000", "164641.636000", "164641.639000", "164641.643000", "164721.556000", "164721.560000", "164721.563000", "164721.567000", "164721.570000", "164721.573000", "164721.576000", "164721.580000", "164721.583000", "164721.586000", "164721.590000", "164721.606000", "164721.609000", "164721.612000", "164721.615000", "164721.619000", "164721.622000", "164721.625000", "164721.629000", "164721.632000", "164721.635000", "164721.638000", "164721.642000", "164721.645000", "164721.648000", "164721.651000", "164721.655000", "164801.556000", "164801.560000", "164801.564000", "164801.567000", "164801.570000", "164801.574000", "164801.577000", "164801.580000", "164801.583000", "164801.587000", "164801.590000", "164801.593000", "164801.597000", "164801.600000", "164801.603000", "164801.607000", "164801.610000", "164801.613000", "164801.617000", "164801.620000", "164801.623000", "164801.626000", "164801.630000", "164801.633000", "164801.636000", "164801.640000", "164801.643000", "164831.776000", "164831.780000", "164831.783000", "164831.786000", "164831.790000", "164831.793000", "164831.797000", "164831.800000", "164831.804000", "164831.807000", "164831.810000", "164831.814000", "164831.817000", "164831.821000", "164831.824000", "164831.827000", "164831.831000", "164831.834000", "164831.837000", "164831.840000"],
      "InstanceCreationTime": ["164041.590000", "164041.594000", "164041.597000", "164041.600000", "164041.610000", "164041.613000", "164041.634000", "164041.637000", "164041.640000", "164041.644000", "164041.647000", "164041.650000", "164041.653000", "164041.657000", "164101.556000", "164101.560000", "164101.563000", "164101.566000", "164101.570000", "164101.573000", "164101.576000", "164101.579000", "164101.583000", "164101.586000", "164101.589000", "164101.593000", "164101.596000", "164101.599000", "164101.603000", "164101.607000", "164101.611000", "164101.616000", "164101.619000", "164101.634000", "164121.555000", "164121.559000", "164121.562000", "164121.565000", "164121.569000", "164121.572000", "164121.575000", "164121.578000", "164121.582000", "164121.585000", "164121.588000", "164121.591000", "164121.595000", "164121.598000", "164121.610000", "164121.613000", "164121.616000", "164121.619000", "164121.623000", "164121.626000", "164121.629000", "164141.555000", "164141.559000", "164141.562000", "164141.565000", "164141.569000", "164141.572000", "164141.575000", "164141.578000", "164141.582000", "164141.585000", "164141.588000", "164141.591000", "164141.595000", "164141.598000", "164141.601000", "164141.604000", "164141.607000", "164141.611000", "164141.614000", "164141.617000", "164201.555000", "164201.559000", "164201.562000", "164201.566000", "164201.575000", "164201.578000", "164201.581000", "164201.584000", "164201.588000", "164201.591000", "164201.595000", "164201.598000", "164201.601000", "164201.604000", "164201.608000", "164201.611000", "164201.614000", "164201.618000", "164201.621000", "164201.624000", "164241.556000", "164241.560000", "164241.563000", "164241.566000", "164241.570000", "164241.573000", "164241.577000", "164241.580000", "164241.583000", "164241.597000", "164241.600000", "164241.604000", "164241.607000", "164241.610000", "164241.614000", "164241.617000", "164241.620000", "164241.624000", "164241.627000", "164241.630000", "164241.633000", "164241.637000", "164241.640000", "164241.643000", "164241.646000", "164241.650000", "164321.556000", "164321.560000", "164321.563000", "164321.567000", "164321.570000", "164321.573000", "164321.577000", "164321.580000", "164321.583000", "164321.587000", "164321.590000", "164321.593000", "164321.596000", "164321.600000", "164321.603000", "164321.606000", "164321.610000", "164321.613000", "164321.616000", "164321.619000", "164321.623000", "164321.626000", "164321.629000", "164321.633000", "164321.636000", "164321.639000", "164321.643000", "164401.555000", "164401.559000", "164401.562000", "164401.565000", "164401.569000", "164401.572000", "164401.576000", "164401.579000", "164401.583000", "164401.586000", "164401.590000", "164401.593000", "164401.596000", "164401.599000", "164401.603000", "164401.606000", "164401.610000", "164401.613000", "164401.616000", "164401.620000", "164401.623000", "164401.626000", "164401.630000", "164401.633000", "164401.636000", "164401.639000", "164401.643000", "164441.555000", "164441.559000", "164441.562000", "164441.565000", "164441.569000", "164441.572000", "164441.575000", "164441.579000", "164441.595000", "164441.598000", "164441.601000", "164441.604000", "164441.608000", "164441.611000", "164441.614000", "164441.618000", "164441.621000", "164441.624000", "164441.627000", "164441.631000", "164441.634000", "164441.637000", "164441.641000", "164441.644000", "164441.648000", "164441.651000", "164441.654000", "164521.556000", "164521.560000", "164521.572000", "164521.575000", "164521.579000", "164521.582000", "164521.585000", "164521.589000", "164521.592000", "164521.595000", "164521.599000", "164521.602000", "164521.605000", "164521.609000", "164521.617000", "164521.621000", "164521.624000", "164521.627000", "164521.631000", "164521.634000", "164521.637000", "164521.641000", "164521.644000", "164521.647000", "164521.651000", "164521.654000", "164521.657000", "164601.555000", "164601.559000", "164601.562000", "164601.566000", "164601.569000", "164601.572000", "164601.576000", "164601.579000", "164601.582000", "164601.586000", "164601.589000", "164601.592000", "164601.596000", "164601.599000", "164601.602000", "164601.605000", "164601.609000", "164601.612000", "164601.615000", "164601.619000", "164601.622000", "164601.625000", "164601.629000", "164601.632000", "164601.635000", "164601.638000", "164601.642000", "164641.555000", "164641.559000", "164641.563000", "164641.567000", "164641.570000", "164641.574000", "164641.578000", "164641.581000", "164641.585000", "164641.589000", "164641.593000", "164641.596000", "164641.600000", "164641.603000", "164641.606000", "164641.610000", "164641.613000", "164641.616000", "164641.620000", "164641.623000", "164641.626000", "164641.629000", "164641.633000", "164641.636000", "164641.639000", "164641.643000", "164721.556000", "164721.560000", "164721.563000", "164721.567000", "164721.570000", "164721.573000", "164721.576000", "164721.580000", "164721.583000", "164721.586000", "164721.590000", "164721.606000", "164721.609000", "164721.612000", "164721.615000", "164721.619000", "164721.622000", "164721.625000", "164721.629000", "164721.632000", "164721.635000", "164721.638000", "164721.642000", "164721.645000", "164721.648000", "164721.651000", "164721.655000", "164801.556000", "164801.560000", "164801.564000", "164801.567000", "164801.570000", "164801.574000", "164801.577000", "164801.580000", "164801.583000", "164801.587000", "164801.590000", "164801.593000", "164801.597000", "164801.600000", "164801.603000", "164801.607000", "164801.610000", "164801.613000", "164801.617000", "164801.620000", "164801.623000", "164801.626000", "164801.630000", "164801.633000", "164801.636000", "164801.640000", "164801.643000", "164831.776000", "164831.780000", "164831.783000", "164831.786000", "164831.790000", "164831.793000", "164831.797000", "164831.800000", "164831.804000", "164831.807000", "164831.810000", "164831.814000", "164831.817000", "164831.821000", "164831.824000", "164831.827000", "164831.831000", "164831.834000", "164831.837000", "164831.840000"],
      "InstanceNumber": [1, 2, 3, 4, 5, 6, 7, 8, 9, 10, 11, 12, 13, 14, 15, 16, 17, 18, 19, 20, 21, 22, 23, 24, 25, 26, 27, 28, 29, 30, 31, 32, 33, 34, 35, 36, 37, 38, 39, 40, 41, 42, 43, 44, 45, 46, 47, 48, 49, 50, 51, 52, 53, 54, 55, 56, 57, 58, 59, 60, 61, 62, 63, 64, 65, 66, 67, 68, 69, 70, 71, 72, 73, 74, 75, 76, 77, 78, 79, 80, 81, 82, 83, 84, 85, 86, 87, 88, 89, 90, 91, 92, 93, 94, 95, 96, 97, 98, 99, 100, 101, 102, 103, 104, 105, 106, 107, 108, 109, 110, 111, 112, 113, 114, 115, 116, 117, 118, 119, 120, 121, 122, 123, 124, 125, 126, 127, 128, 129, 130, 131, 132, 133, 134, 135, 136, 137, 138, 139, 140, 141, 142, 143, 144, 145, 146, 147, 148, 149, 150, 151, 152, 153, 154, 155, 156, 157, 158, 159, 160, 161, 162, 163, 164, 165, 166, 167, 168, 169, 170, 171, 172, 173, 174, 175, 176, 177, 178, 179, 180, 181, 182, 183, 184, 185, 186, 187, 188, 189, 190, 191, 192, 193, 194, 195, 196, 197, 198, 199, 200, 201, 202, 203, 204, 205, 206, 207, 208, 209, 210, 211, 212, 213, 214, 215, 216, 217, 218, 219, 220, 221, 222, 223, 224, 225, 226, 227, 228, 229, 230, 231, 232, 233, 234, 235, 236, 237, 238, 239, 240, 241, 242, 243, 244, 245, 246, 247, 248, 249, 250, 251, 252, 253, 254, 255, 256, 257, 258, 259, 260, 261, 262, 263, 264, 265, 266, 267, 268, 269, 270, 271, 272, 273, 274, 275, 276, 277, 278, 279, 280, 281, 282, 283, 284, 285, 286, 287, 288, 289, 290, 291, 292, 293, 294, 295, 296, 297, 298, 299, 300, 301, 302, 303, 304, 305, 306, 307, 308, 309, 310, 311, 312, 313, 314, 315, 316, 317, 318, 319, 320, 321, 322, 323, 324, 325, 326, 327, 328, 329, 330, 331, 332, 333, 334, 335, 336, 337, 338, 339, 340, 341, 342, 343, 344, 345, 346, 347, 348, 349, 350, 351, 352, 353, 354, 355, 356],
      "LargestImagePixelValue": [48134, 48099, 46443, 45904, 46674, 46924, 47436, 46683, 46031, 48531, 48398, 47330, 46459, 45463, 45803, 47272, 47498, 47400, 46362, 46672, 48500, 47585, 46863, 46555, 46210, 46330, 46345, 45494, 46528, 44852, 45870, 45340, 45707, 45292, 49608, 47998, 46379, 47201, 47527, 45995, 46804, 47982, 47179, 46395, 45540, 46432, 45991, 45597, 45805, 45738, 46412, 46641, 45821, 45216, 47431, 47174, 46076, 46433, 45834, 46211, 45578, 46463, 47224, 46299, 46147, 46262, 46131, 46784, 45736, 46632, 46952, 47766, 47374, 47073, 47052, 46823, 46438, 45663, 46567, 46444, 45468, 46430, 45818, 46147, 46966, 47046, 47407, 47139, 47131, 47304, 46288, 46293, 47119, 46441, 46326, 46769, 47167, 46422, 46785, 46199, 45591, 48166, 47032, 45220, 46181, 45996, 52328, 46450, 46933, 45178, 47618, 45660, 45690, 46545, 46830, 45129, 45993, 46802, 47207, 47729, 49339, 46232, 48731, 48378, 48714, 45354, 46230, 47058, 46477, 45951, 45609, 46601, 45884, 46129, 47136, 47137, 46916, 46196, 46063, 45820, 46095, 46629, 46266, 47179, 45596, 47515, 47537, 46821, 46283, 45881, 46676, 46607, 45340, 45310, 45616, 45861, 45737, 46175, 45725, 47050, 46209, 46722, 47229, 46207, 45434, 45729, 45694, 46146, 45317, 45434, 45273, 45151, 45357, 45689, 46067, 45253, 45608, 46243, 45986, 45781, 45575, 45833, 46925, 46784, 46929, 45879, 45750, 45600, 45989, 46412, 46852, 46190, 46693, 46288, 46351, 46971, 45936, 47069, 46891, 46857, 46446, 46209, 45591, 45746, 45454, 49315, 44961, 45941, 45078, 46053, 45342, 46303, 45977, 45673, 45381, 45119, 44953, 45096, 46131, 45544, 45884, 45771, 45912, 45370, 45485, 45220, 45604, 45918, 46625, 46209, 46898, 45961, 45958, 45505, 45392, 46218, 46633, 47047, 46624, 44982, 45933, 46467, 46053, 46562, 47268, 46718, 44864, 47442, 46360, 45478, 45639, 45527, 45791, 47010, 46777, 46234, 45431, 45976, 45537, 45237, 45798, 55532, 49563, 47452, 45632, 46536, 45323, 45493, 45184, 44800, 44309, 46637, 46053, 46456, 46907, 48341, 46099, 46154, 46700, 46051, 44891, 44600, 46802, 44290, 45150, 45944, 44859, 47085, 46388, 46125, 47360, 46075, 45181, 45351, 49311, 45889, 45576, 45235, 47022, 45958, 46060, 46265, 45801, 46899, 46462, 46622, 46710, 47374, 47077, 45508, 46228, 46199, 45737, 47228, 45898, 48798, 46270, 46056, 47594, 45855, 45912, 51374, 46387, 45478, 45792, 45134, 47347, 46238, 46909, 47231, 45111, 45721, 46430, 45865, 45127, 53141, 45710, 47890, 46231, 45612, 46022, 46522, 47235, 46415, 46760, 45944, 45174, 58911, 48273, 45077, 45479, 46763, 45414, 45980, 45683, 45449],
