{
  "AcquisitionMatrixPE": 104,
  "AcquisitionNumber": 1,
  "AcquisitionTime": "15:40:53.425000",
  "BandwidthPerPixelPhaseEncode": 17.17,
  "BaseResolution": 104,
  "BodyPartExamined": "BRAIN",
  "CoilCombinationMethod": "Sum of Squares",
  "ConsistencyInfo": "N4_VE11C_LATEST_20160120",
  "ConversionSoftware": "dcm2niix",
  "ConversionSoftwareVersion": "v1.0.20220505",
  "DerivedVendorReportedEchoSpacing": 0.000560011,
  "DeviceSerialNumber": "167006",
  "DwellTime": 2.1e-06,
  "EchoTime": 0.037,
  "EchoTrainLength": 104,
  "EffectiveEchoSpacing": 0.000560011,
  "FlipAngle": 52,
  "HeudiconvVersion": "0.5.3.post811+g6206e14",
  "ImageComments": "Unaliased MB4/PE3/LB",
  "ImageOrientationPatientDICOM": [0.998349, -0.00403019, 0.0572932, 0.0334675, 0.851501, -0.523283],
  "ImageOrientationText": "Tra>Cor(-31.7)>Sag(2.7)",
  "ImageType": [
    "ORIGINAL",
    "PRIMARY",
    "M",
    "MB",
    "ND",
    "MOSAIC"
],
  "ImagingFrequency": 123.26,
  "InPlanePhaseEncodingDirectionDICOM": "COL",
  "InstitutionAddress": "Chemin Queen-Mary 4565,Montreal,District,CA,H3W 1W5",
  "InstitutionName": "IUGM",
  "InstitutionalDepartmentName": "Department",
  "MRAcquisitionType": "2D",
  "MagneticFieldStrength": 3,
  "Manufacturer": "Siemens",
  "ManufacturersModelName": "Prisma_fit",
  "MatrixCoilMode": "SENSE",
  "Modality": "MR",
  "MultibandAccelerationFactor": 4,
  "PartialFourier": 1,
  "PatientPosition": "HFS",
  "PercentPhaseFOV": 100,
  "PercentSampling": 100,
  "PhaseEncodingDirection": "j",
  "PhaseEncodingSteps": 104,
  "PhaseResolution": 1,
  "PixelBandwidth": 2290,
  "ProcedureStepDescription": "games^mario3",
  "ProtocolName": "func_task-mario3_run-01",
  "PulseSequenceDetails": "%CustomerSeq%\\cmrr_mbep2d_bold",
  "ReceiveCoilActiveElements": "HC1-7;NC1,2",
  "ReceiveCoilName": "HeadNeck_64",
  "ReconMatrixPE": 104,
  "RepetitionTime": 1.49,
  "SAR": 0.0411211,
  "ScanOptions": "FS",
  "ScanningSequence": "EP",
  "SequenceName": "epfid2d1_104",
  "SequenceVariant": "SK\\SS",
  "SeriesDescription": "func_task-mario3_run-01",
  "SeriesNumber": 10,
  "ShimSetting": [616, -7179, -8853, 319, 10, -110, -53, 29],
  "SliceThickness": 2,
  "SliceTiming": [0, 0.7825, 0.0975, 0.88, 0.195, 0.98, 0.2925, 1.0775, 0.39, 1.175, 0.49, 1.2725, 0.5875, 1.37, 0.685, 0, 0.7825, 0.0975, 0.88, 0.195, 0.98, 0.2925, 1.0775, 0.39, 1.175, 0.49, 1.2725, 0.5875, 1.37, 0.685, 0, 0.7825, 0.0975, 0.88, 0.195, 0.98, 0.2925, 1.0775, 0.39, 1.175, 0.49, 1.2725, 0.5875, 1.37, 0.685, 0, 0.7825, 0.0975, 0.88, 0.195, 0.98, 0.2925, 1.0775, 0.39, 1.175, 0.49, 1.2725, 0.5875, 1.37, 0.685],
  "SoftwareVersions": "syngo MR E11",
  "SpacingBetweenSlices": 2,
  "StationName": "MRC35049",
  "TaskName": "mario3",
  "TotalReadoutTime": 0.0576811,
  "TxRefAmp": 249.545,
  "WipMemBlock": "2ebe0b72-6def-4c20-92c7-73cba119167a||Sequence: R017 ve11c/master r/75a17815+; Jun 28 2022 16:32:11 by eja",
  "dcmmeta_affine": [
    [-1.9966984987258911, 0.06693509221076965, 0.09335267543792725, 101.9434814453125],
    [0.008060373365879059, 1.703002691268921, -1.0486738681793213, -56.336402893066406],
    [0.11458646506071091, 1.0465664863586426, 1.7004612684249878, -99.49699401855469],
    [0.0, 0.0, 0.0, 1.0]
],
  "dcmmeta_reorient_transform": [
    [0.0, -1.0, 0.0, 103.0],
    [1.0, 0.0, 0.0, 0.0],
    [0.0, 0.0, 1.0, 0.0],
    [0.0, 0.0, 0.0, 1.0]
],
  "dcmmeta_shape": [104, 104, 60, 600],
  "dcmmeta_slice_dim": 2,
  "dcmmeta_version": 0.6,
  "global": {
    "const": {
      "AcquisitionMatrix": [104, 0, 0, 104],
      "AngioFlag": "N",
      "BitsAllocated": 16,
      "BitsStored": 16,
      "BodyPartExamined": "BRAIN",
      "Columns": 832,
      "EchoNumbers": 1,
      "EchoTime": 37.0,
      "EchoTrainLength": 104,
      "FlipAngle": 52.0,
      "HighBit": 15,
      "ImageOrientationPatient": [0.99834925897122, -0.0040301866799, 0.05729323439063, 0.03346754518275, 0.8515013630286, -0.5232832427853],
      "ImagePositionPatient": [-860.00042755841, -736.03189556843, 347.54007843333],
      "ImageType": [
        "ORIGINAL",
        "PRIMARY",
        "M",
        "MB",
        "ND",
        "MOSAIC"
],
      "ImagedNucleus": "1H",
      "ImagingFrequency": 123.260267,
      "InPlanePhaseEncodingDirection": "COL",
      "MRAcquisitionType": "2D",
      "MagneticFieldStrength": 3.0,
      "Manufacturer": "SIEMENS",
      "ManufacturerModelName": "Prisma_fit",
      "Modality": "MR",
      "NumberOfAverages": 1.0,
      "NumberOfPhaseEncodingSteps": 104,
      "PercentPhaseFieldOfView": 100.0,
      "PercentSampling": 100.0,
      "PerformedProcedureStepStartTime": "151822.925000",
      "PhotometricInterpretation": "MONOCHROME2",
      "PixelBandwidth": 2290.0,
      "PixelRepresentation": 0,
      "PixelSpacing": [2.0, 2.0],
      "ProtocolName": "func_task-mario3_run-01",
      "RepetitionTime": 1490.0,
      "Rows": 832,
      "SAR": 0.04112111022599,
      "SamplesPerPixel": 1,
      "ScanOptions": "FS",
      "ScanningSequence": "EP",
      "SequenceName": "epfid2d1_104",
      "SequenceVariant": [
        "SK",
        "SS"
],
      "SeriesDescription": "func_task-mario3_run-01",
      "SeriesNumber": 10,
      "SeriesTime": "154221.203000",
      "SliceLocation": -50.297791269217,
      "SliceThickness": 2.0,
      "SmallestImagePixelValue": 0,
      "SoftwareVersions": "syngo MR E11",
      "SpacingBetweenSlices": 2.0000000251602,
      "SpecificCharacterSet": "ISO_IR 100",
      "StudyID": "1",
      "StudyTime": "151822.692000",
      "TransmitCoilName": "Body",
      "VariableFlipAngleFlag": "N",
      "WindowCenterWidthExplanation": "Algo1",
      "dBdt": 0.0},
    "slices": {}
  },
  "time": {
    "samples": {
      "AcquisitionNumber": [1, 2, 3, 4, 5, 6, 7, 8, 9, 10, 11, 12, 13, 14, 15, 16, 17, 18, 19, 20, 21, 22, 23, 24, 25, 26, 27, 28, 29, 30, 31, 32, 33, 34, 35, 36, 37, 38, 39, 40, 41, 42, 43, 44, 45, 46, 47, 48, 49, 50, 51, 52, 53, 54, 55, 56, 57, 58, 59, 60, 61, 62, 63, 64, 65, 66, 67, 68, 69, 70, 71, 72, 73, 74, 75, 76, 77, 78, 79, 80, 81, 82, 83, 84, 85, 86, 87, 88, 89, 90, 91, 92, 93, 94, 95, 96, 97, 98, 99, 100, 101, 102, 103, 104, 105, 106, 107, 108, 109, 110, 111, 112, 113, 114, 115, 116, 117, 118, 119, 120, 121, 122, 123, 124, 125, 126, 127, 128, 129, 130, 131, 132, 133, 134, 135, 136, 137, 138, 139, 140, 141, 142, 143, 144, 145, 146, 147, 148, 149, 150, 151, 152, 153, 154, 155, 156, 157, 158, 159, 160, 161, 162, 163, 164, 165, 166, 167, 168, 169, 170, 171, 172, 173, 174, 175, 176, 177, 178, 179, 180, 181, 182, 183, 184, 185, 186, 187, 188, 189, 190, 191, 192, 193, 194, 195, 196, 197, 198, 199, 200, 201, 202, 203, 204, 205, 206, 207, 208, 209, 210, 211, 212, 213, 214, 215, 216, 217, 218, 219, 220, 221, 222, 223, 224, 225, 226, 227, 228, 229, 230, 231, 232, 233, 234, 235, 236, 237, 238, 239, 240, 241, 242, 243, 244, 245, 246, 247, 248, 249, 250, 251, 252, 253, 254, 255, 256, 257, 258, 259, 260, 261, 262, 263, 264, 265, 266, 267, 268, 269, 270, 271, 272, 273, 274, 275, 276, 277, 278, 279, 280, 281, 282, 283, 284, 285, 286, 287, 288, 289, 290, 291, 292, 293, 294, 295, 296, 297, 298, 299, 300, 301, 302, 303, 304, 305, 306, 307, 308, 309, 310, 311, 312, 313, 314, 315, 316, 317, 318, 319, 320, 321, 322, 323, 324, 325, 326, 327, 328, 329, 330, 331, 332, 333, 334, 335, 336, 337, 338, 339, 340, 341, 342, 343, 344, 345, 346, 347, 348, 349, 350, 351, 352, 353, 354, 355, 356, 357, 358, 359, 360, 361, 362, 363, 364, 365, 366, 367, 368, 369, 370, 371, 372, 373, 374, 375, 376, 377, 378, 379, 380, 381, 382, 383, 384, 385, 386, 387, 388, 389, 390, 391, 392, 393, 394, 395, 396, 397, 398, 399, 400, 401, 402, 403, 404, 405, 406, 407, 408, 409, 410, 411, 412, 413, 414, 415, 416, 417, 418, 419, 420, 421, 422, 423, 424, 425, 426, 427, 428, 429, 430, 431, 432, 433, 434, 435, 436, 437, 438, 439, 440, 441, 442, 443, 444, 445, 446, 447, 448, 449, 450, 451, 452, 453, 454, 455, 456, 457, 458, 459, 460, 461, 462, 463, 464, 465, 466, 467, 468, 469, 470, 471, 472, 473, 474, 475, 476, 477, 478, 479, 480, 481, 482, 483, 484, 485, 486, 487, 488, 489, 490, 491, 492, 493, 494, 495, 496, 497, 498, 499, 500, 501, 502, 503, 504, 505, 506, 507, 508, 509, 510, 511, 512, 513, 514, 515, 516, 517, 518, 519, 520, 521, 522, 523, 524, 525, 526, 527, 528, 529, 530, 531, 532, 533, 534, 535, 536, 537, 538, 539, 540, 541, 542, 543, 544, 545, 546, 547, 548, 549, 550, 551, 552, 553, 554, 555, 556, 557, 558, 559, 560, 561, 562, 563, 564, 565, 566, 567, 568, 569, 570, 571, 572, 573, 574, 575, 576, 577, 578, 579, 580, 581, 582, 583, 584, 585, 586, 587, 588, 589, 590, 591, 592, 593, 594, 595, 596, 597, 598, 599, 600],
      "AcquisitionTime": ["154053.425000", "154054.915000", "154056.405000", "154057.895000", "154059.385000", "154100.875000", "154102.365000", "154103.855000", "154105.345000", "154106.835000", "154108.325000", "154109.815000", "154111.305000", "154112.795000", "154114.285000", "154115.775000", "154117.265000", "154118.755000", "154120.245000", "154121.735000", "154123.225000", "154124.715000", "154126.205000", "154127.695000", "154129.185000", "154130.675000", "154132.165000", "154133.655000", "154135.145000", "154136.635000", "154138.125000", "154139.615000", "154141.105000", "154142.595000", "154144.085000", "154145.575000", "154147.065000", "154148.555000", "154150.045000", "154151.535000", "154153.025000", "154154.515000", "154156.005000", "154157.495000", "154158.985000", "154200.475000", "154201.965000", "154203.455000", "154204.945000", "154206.435000", "154207.925000", "154209.415000", "154210.905000", "154212.395000", "154213.885000", "154215.375000", "154216.865000", "154218.355000", "154219.845000", "154221.335000", "154222.825000", "154224.315000", "154225.805000", "154227.295000", "154228.785000", "154230.275000", "154231.765000", "154233.255000", "154234.745000", "154236.235000", "154237.725000", "154239.215000", "154240.705000", "154242.195000", "154243.685000", "154245.175000", "154246.665000", "154248.155000", "154249.645000", "154251.135000", "154252.625000", "154254.115000", "154255.605000", "154257.095000", "154258.585000", "154300.075000", "154301.565000", "154303.055000", "154304.545000", "154306.035000", "154307.525000", "154309.015000", "154310.505000", "154311.995000", "154313.485000", "154314.975000", "154316.465000", "154317.955000", "154319.445000", "154320.935000", "154322.425000", "154323.915000", "154325.405000", "154326.895000", "154328.385000", "154329.875000", "154331.365000", "154332.855000", "154334.345000", "154335.835000", "154337.325000", "154338.815000", "154340.305000", "154341.795000", "154343.285000", "154344.775000", "154346.265000", "154347.755000", "154349.245000", "154350.735000", "154352.225000", "154353.715000", "154355.205000", "154356.695000", "154358.185000", "154359.675000", "154401.165000", "154402.655000", "154404.145000", "154405.635000", "154407.125000", "154408.615000", "154410.105000", "154411.595000", "154413.085000", "154414.575000", "154416.065000", "154417.555000", "154419.045000", "154420.535000", "154422.025000", "154423.515000", "154425.005000", "154426.495000", "154427.985000", "154429.475000", "154430.965000", "154432.455000", "154433.945000", "154435.435000", "154436.925000", "154438.415000", "154439.905000", "154441.395000", "154442.885000", "154444.375000", "154445.865000", "154447.355000", "154448.845000", "154450.335000", "154451.825000", "154453.315000", "154454.805000", "154456.295000", "154457.785000", "154459.275000", "154500.765000", "154502.255000", "154503.745000", "154505.235000", "154506.725000", "154508.215000", "154509.705000", "154511.195000", "154512.685000", "154514.175000", "154515.665000", "154517.155000", "154518.645000", "154520.135000", "154521.625000", "154523.115000", "154524.605000", "154526.095000", "154527.585000", "154529.075000", "154530.565000", "154532.055000", "154533.545000", "154535.035000", "154536.525000", "154538.015000", "154539.505000", "154540.995000", "154542.485000", "154543.975000", "154545.465000", "154546.955000", "154548.445000", "154549.935000", "154551.425000", "154552.915000", "154554.405000", "154555.895000", "154557.385000", "154558.875000", "154600.365000", "154601.855000", "154603.345000", "154604.835000", "154606.325000", "154607.815000", "154609.305000", "154610.795000", "154612.285000", "154613.775000", "154615.265000", "154616.755000", "154618.245000", "154619.735000", "154621.225000", "154622.715000", "154624.205000", "154625.695000", "154627.185000", "154628.675000", "154630.165000", "154631.655000", "154633.145000", "154634.635000", "154636.125000", "154637.615000", "154639.105000", "154640.595000", "154642.085000", "154643.575000", "154645.065000", "154646.555000", "154648.045000", "154649.535000", "154651.025000", "154652.515000", "154654.005000", "154655.495000", "154656.985000", "154658.475000", "154659.965000", "154701.455000", "154702.945000", "154704.435000", "154705.925000", "154707.415000", "154708.905000", "154710.395000", "154711.885000", "154713.375000", "154714.865000", "154716.355000", "154717.845000", "154719.335000", "154720.825000", "154722.315000", "154723.805000", "154725.295000", "154726.785000", "154728.275000", "154729.765000", "154731.255000", "154732.745000", "154734.235000", "154735.725000", "154737.215000", "154738.705000", "154740.195000", "154741.685000", "154743.175000", "154744.665000", "154746.155000", "154747.645000", "154749.135000", "154750.625000", "154752.115000", "154753.605000", "154755.095000", "154756.585000", "154758.075000", "154759.565000", "154801.055000", "154802.545000", "154804.035000", "154805.525000", "154807.015000", "154808.505000", "154809.995000", "154811.485000", "154812.975000", "154814.465000", "154815.955000", "154817.445000", "154818.935000", "154820.425000", "154821.915000", "154823.405000", "154824.895000", "154826.385000", "154827.875000", "154829.365000", "154830.855000", "154832.345000", "154833.835000", "154835.325000", "154836.815000", "154838.305000", "154839.795000", "154841.285000", "154842.775000", "154844.265000", "154845.755000", "154847.245000", "154848.735000", "154850.225000", "154851.715000", "154853.205000", "154854.695000", "154856.185000", "154857.675000", "154859.165000", "154900.655000", "154902.145000", "154903.635000", "154905.125000", "154906.615000", "154908.105000", "154909.595000", "154911.085000", "154912.575000", "154914.065000", "154915.555000", "154917.045000", "154918.535000", "154920.025000", "154921.515000", "154923.005000", "154924.495000", "154925.985000", "154927.475000", "154928.965000", "154930.455000", "154931.945000", "154933.435000", "154934.925000", "154936.415000", "154937.905000", "154939.395000", "154940.885000", "154942.375000", "154943.865000", "154945.355000", "154946.845000", "154948.335000", "154949.825000", "154951.315000", "154952.805000", "154954.295000", "154955.785000", "154957.275000", "154958.765000", "155000.255000", "155001.745000", "155003.235000", "155004.725000", "155006.215000", "155007.705000", "155009.195000", "155010.685000", "155012.175000", "155013.665000", "155015.155000", "155016.645000", "155018.135000", "155019.625000", "155021.115000", "155022.605000", "155024.095000", "155025.585000", "155027.075000", "155028.565000", "155030.055000", "155031.545000", "155033.035000", "155034.525000", "155036.015000", "155037.505000", "155038.995000", "155040.485000", "155041.975000", "155043.465000", "155044.955000", "155046.445000", "155047.935000", "155049.425000", "155050.915000", "155052.405000", "155053.895000", "155055.385000", "155056.875000", "155058.365000", "155059.855000", "155101.345000", "155102.835000", "155104.325000", "155105.815000", "155107.305000", "155108.795000", "155110.285000", "155111.775000", "155113.265000", "155114.755000", "155116.245000", "155117.735000", "155119.225000", "155120.715000", "155122.205000", "155123.695000", "155125.185000", "155126.675000", "155128.165000", "155129.655000", "155131.145000", "155132.635000", "155134.125000", "155135.615000", "155137.105000", "155138.595000", "155140.085000", "155141.575000", "155143.065000", "155144.555000", "155146.045000", "155147.535000", "155149.025000", "155150.515000", "155152.005000", "155153.495000", "155154.985000", "155156.475000", "155157.965000", "155159.455000", "155200.945000", "155202.435000", "155203.925000", "155205.415000", "155206.905000", "155208.395000", "155209.885000", "155211.375000", "155212.865000", "155214.355000", "155215.845000", "155217.335000", "155218.825000", "155220.315000", "155221.805000", "155223.295000", "155224.785000", "155226.275000", "155227.765000", "155229.255000", "155230.745000", "155232.235000", "155233.725000", "155235.215000", "155236.705000", "155238.195000", "155239.685000", "155241.175000", "155242.665000", "155244.155000", "155245.645000", "155247.135000", "155248.625000", "155250.115000", "155251.605000", "155253.095000", "155254.585000", "155256.075000", "155257.565000", "155259.055000", "155300.545000", "155302.035000", "155303.525000", "155305.015000", "155306.505000", "155307.995000", "155309.485000", "155310.975000", "155312.465000", "155313.955000", "155315.445000", "155316.935000", "155318.425000", "155319.915000", "155321.405000", "155322.895000", "155324.385000", "155325.875000", "155327.365000", "155328.855000", "155330.345000", "155331.835000", "155333.325000", "155334.815000", "155336.305000", "155337.795000", "155339.285000", "155340.775000", "155342.265000", "155343.755000", "155345.245000", "155346.735000", "155348.225000", "155349.715000", "155351.205000", "155352.695000", "155354.185000", "155355.675000", "155357.165000", "155358.655000", "155400.145000", "155401.635000", "155403.125000", "155404.615000", "155406.105000", "155407.595000", "155409.085000", "155410.575000", "155412.065000", "155413.555000", "155415.045000", "155416.535000", "155418.025000", "155419.515000", "155421.005000", "155422.495000", "155423.985000", "155425.475000", "155426.965000", "155428.455000", "155429.945000", "155431.435000", "155432.925000", "155434.415000", "155435.905000", "155437.395000", "155438.885000", "155440.375000", "155441.865000", "155443.355000", "155444.845000", "155446.335000", "155447.825000", "155449.315000", "155450.805000", "155452.295000", "155453.785000", "155455.275000", "155456.765000", "155458.255000", "155459.745000", "155501.235000", "155502.725000", "155504.215000", "155505.705000", "155507.195000", "155508.685000", "155510.175000", "155511.665000", "155513.155000", "155514.645000", "155516.135000", "155517.625000", "155519.115000", "155520.605000", "155522.095000", "155523.585000", "155525.075000", "155526.565000", "155528.055000", "155529.545000", "155531.035000", "155532.525000", "155534.015000", "155535.505000", "155536.995000", "155538.485000", "155539.975000", "155541.465000", "155542.955000", "155544.445000", "155545.935000"],
      "ContentTime": ["154221.206000", "154221.210000", "154221.214000", "154221.217000", "154221.220000", "154221.224000", "154221.227000", "154221.230000", "154221.234000", "154221.237000", "154221.247000", "154221.250000", "154221.253000", "154221.257000", "154221.260000", "154221.264000", "154221.267000", "154221.270000", "154221.274000", "154221.277000", "154221.280000", "154221.284000", "154221.287000", "154221.299000", "154221.303000", "154221.306000", "154221.309000", "154221.313000", "154221.316000", "154221.327000", "154221.330000", "154221.334000", "154221.337000", "154221.340000", "154221.344000", "154221.347000", "154221.360000", "154221.371000", "154241.173000", "154241.177000", "154241.180000", "154241.183000", "154241.187000", "154241.190000", "154241.193000", "154241.197000", "154241.200000", "154241.203000", "154241.207000", "154241.210000", "154241.214000", "154241.217000", "154241.220000", "154241.224000", "154241.227000", "154241.230000", "154241.234000", "154241.237000", "154301.173000", "154301.177000", "154301.180000", "154301.184000", "154301.187000", "154301.190000", "154301.194000", "154301.197000", "154301.200000", "154301.204000", "154301.207000", "154301.210000", "154301.214000", "154301.217000", "154301.220000", "154301.224000", "154301.227000", "154301.231000", "154301.234000", "154301.237000", "154321.173000", "154321.177000", "154321.180000", "154321.183000", "154321.187000", "154321.190000", "154321.194000", "154321.197000", "154321.200000", "154321.204000", "154321.207000", "154321.210000", "154321.213000", "154321.217000", "154321.220000", "154321.224000", "154321.227000", "154321.230000", "154321.234000", "154321.237000", "154401.173000", "154401.177000", "154401.181000", "154401.184000", "154401.187000", "154401.191000", "154401.194000", "154401.197000", "154401.201000", "154401.204000", "154401.207000", "154401.211000", "154401.214000", "154401.217000", "154401.221000", "154401.224000", "154401.227000", "154401.231000", "154401.242000", "154401.245000", "154401.248000", "154401.252000", "154401.255000", "154401.258000", "154401.262000", "154401.265000", "154401.268000", "154441.172000", "154441.176000", "154441.179000", "154441.182000", "154441.197000", "154441.201000", "154441.204000", "154441.207000", "154441.211000", "154441.214000", "154441.217000", "154441.221000", "154441.224000", "154441.231000", "154441.234000", "154441.237000", "154441.241000", "154441.244000", "154441.247000", "154441.251000", "154441.254000", "154441.257000", "154441.261000", "154441.264000", "154441.268000", "154441.271000", "154441.274000", "154501.173000", "154501.177000", "154501.180000", "154501.184000", "154501.187000", "154501.191000", "154501.194000", "154501.197000", "154501.200000", "154501.204000", "154501.207000", "154501.211000", "154501.215000", "154541.173000", "154541.177000", "154541.180000", "154541.184000", "154541.187000", "154541.190000", "154541.194000", "154541.197000", "154541.200000", "154541.204000", "154541.207000", "154541.211000", "154541.214000", "154541.217000", "154541.221000", "154541.224000", "154541.227000", "154541.231000", "154541.234000", "154541.238000", "154541.241000", "154541.244000", "154541.248000", "154541.251000", "154541.254000", "154541.258000", "154541.261000", "154621.173000", "154621.177000", "154621.180000", "154621.184000", "154621.187000", "154621.191000", "154621.202000", "154621.206000", "154621.209000", "154621.213000", "154621.216000", "154621.219000", "154621.223000", "154621.226000", "154621.229000", "154621.233000", "154621.237000", "154621.240000", "154621.244000", "154621.247000", "154621.250000", "154621.254000", "154621.257000", "154621.260000", "154621.264000", "154621.267000", "154621.271000", "154701.172000", "154701.176000", "154701.179000", "154701.183000", "154701.186000", "154701.189000", "154701.193000", "154701.196000", "154701.214000", "154701.217000", "154701.220000", "154701.224000", "154701.227000", "154701.230000", "154701.234000", "154701.237000", "154701.240000", "154701.244000", "154701.247000", "154701.250000", "154701.254000", "154701.257000", "154701.260000", "154701.264000", "154701.267000", "154701.271000", "154701.274000", "154741.173000", "154741.177000", "154741.180000", "154741.184000", "154741.187000", "154741.190000", "154741.194000", "154741.197000", "154741.201000", "154741.204000", "154741.207000", "154741.211000", "154741.215000", "154741.218000", "154741.222000", "154741.225000", "154741.229000", "154741.240000", "154741.243000", "154741.246000", "154741.250000", "154741.253000", "154741.256000", "154741.260000", "154741.263000", "154741.266000", "154741.270000", "154821.173000", "154821.177000", "154821.181000", "154821.184000", "154821.187000", "154821.191000", "154821.195000", "154821.198000", "154821.202000", "154821.205000", "154821.209000", "154821.212000", "154821.216000", "154821.219000", "154821.223000", "154821.226000", "154821.229000", "154821.233000", "154821.236000", "154821.240000", "154821.243000", "154821.248000", "154821.252000", "154821.255000", "154821.259000", "154821.263000", "154821.266000", "154901.172000", "154901.176000", "154901.179000", "154901.183000", "154901.186000", "154901.189000", "154901.193000", "154901.196000", "154901.199000", "154901.203000", "154901.206000", "154901.209000", "154901.213000", "154901.216000", "154901.220000", "154901.223000", "154901.226000", "154901.230000", "154901.233000", "154901.237000", "154901.251000", "154901.254000", "154901.258000", "154901.261000", "154901.264000", "154901.267000", "154941.173000", "154941.177000", "154941.181000", "154941.184000", "154941.187000", "154941.191000", "154941.194000", "154941.197000", "154941.201000", "154941.204000", "154941.208000", "154941.211000", "154941.214000", "154941.217000", "154941.221000", "154941.224000", "154941.227000", "154941.231000", "154941.240000", "154941.244000", "154941.247000", "154941.250000", "154941.254000", "154941.257000", "154941.260000", "154941.264000", "154941.267000", "155021.173000", "155021.177000", "155021.181000", "155021.184000", "155021.187000", "155021.191000", "155021.194000", "155021.197000", "155021.201000", "155021.204000", "155021.207000", "155021.211000", "155021.214000", "155021.217000", "155021.229000", "155021.232000", "155021.236000", "155021.239000", "155021.242000", "155021.246000", "155021.249000", "155021.253000", "155021.256000", "155021.259000", "155021.262000", "155021.267000", "155021.271000", "155101.173000", "155101.177000", "155101.180000", "155101.184000", "155101.187000", "155101.190000", "155101.194000", "155101.197000", "155101.205000", "155101.208000", "155101.212000", "155101.215000", "155101.218000", "155101.222000", "155101.225000", "155101.229000", "155101.232000", "155101.235000", "155101.239000", "155101.247000", "155101.250000", "155101.254000", "155101.257000", "155101.260000", "155101.264000", "155101.274000", "155101.278000", "155141.172000", "155141.176000", "155141.179000", "155141.183000", "155141.186000", "155141.190000", "155141.193000", "155141.196000", "155141.200000", "155141.203000", "155141.206000", "155141.210000", "155141.213000", "155141.216000", "155141.220000", "155141.223000", "155141.227000", "155141.230000", "155141.233000", "155141.237000", "155141.240000", "155141.244000", "155141.247000", "155141.250000", "155141.260000", "155141.263000", "155141.267000", "155221.173000", "155221.177000", "155221.180000", "155221.184000", "155221.187000", "155221.190000", "155221.194000", "155221.197000", "155221.206000", "155221.209000", "155221.212000", "155221.216000", "155221.219000", "155221.222000", "155221.226000", "155221.229000", "155221.232000", "155221.236000", "155221.239000", "155221.243000", "155221.246000", "155221.249000", "155221.253000", "155221.256000", "155221.259000", "155221.263000", "155221.266000", "155301.173000", "155301.177000", "155301.180000", "155301.184000", "155301.187000", "155301.190000", "155301.194000", "155301.197000", "155301.201000", "155301.204000", "155301.207000", "155301.211000", "155301.214000", "155301.217000", "155301.220000", "155301.224000", "155301.227000", "155301.230000", "155301.234000", "155301.237000", "155301.240000", "155301.247000", "155301.251000", "155301.254000", "155301.257000", "155301.261000", "155301.264000", "155341.172000", "155341.176000", "155341.179000", "155341.183000", "155341.186000", "155341.190000", "155341.193000", "155341.196000", "155341.200000", "155341.203000", "155341.207000", "155341.211000", "155341.215000", "155341.218000", "155341.222000", "155341.225000", "155341.228000", "155341.232000", "155341.235000", "155341.238000", "155341.248000", "155341.251000", "155341.254000", "155341.258000", "155341.261000", "155341.264000", "155421.173000", "155421.177000", "155421.180000", "155421.184000", "155421.187000", "155421.190000", "155421.194000", "155421.197000", "155421.200000", "155421.204000", "155421.207000", "155421.210000", "155421.214000", "155421.217000", "155421.221000", "155421.229000", "155421.232000", "155421.236000", "155421.239000", "155421.242000", "155421.246000", "155421.249000", "155421.253000", "155421.256000", "155421.259000", "155421.263000", "155421.266000", "155501.173000", "155501.177000", "155501.180000", "155501.184000", "155501.187000", "155501.191000", "155501.194000", "155501.197000", "155501.201000", "155501.204000", "155501.207000", "155501.211000", "155501.214000", "155501.217000", "155501.221000", "155501.224000", "155501.227000", "155501.231000", "155501.241000", "155501.244000", "155501.248000", "155501.251000", "155501.255000", "155501.258000", "155501.261000", "155501.265000", "155501.268000", "155541.173000", "155541.177000", "155541.180000", "155541.184000", "155541.187000", "155541.191000", "155541.194000", "155541.198000", "155541.201000", "155541.204000", "155541.208000", "155541.211000", "155541.215000", "155541.218000", "155541.221000", "155541.225000", "155541.228000", "155541.231000", "155541.235000", "155541.238000", "155541.242000", "155541.245000", "155541.248000", "155541.252000", "155541.255000", "155541.258000", "155541.262000", "155548.047000", "155548.051000", "155548.054000", "155548.057000", "155548.061000"],
