{
  "AcquisitionMatrixPE": 104,
  "AcquisitionNumber": 1,
  "AcquisitionTime": "16:39:33.697500",
  "BandwidthPerPixelPhaseEncode": 17.17,
  "BaseResolution": 104,
  "BodyPartExamined": "BRAIN",
  "CoilCombinationMethod": "Sum of Squares",
  "ConsistencyInfo": "N4_VE11C_LATEST_20160120",
  "ConversionSoftware": "dcm2niix",
  "ConversionSoftwareVersion": "v1.0.20220505",
  "DerivedVendorReportedEchoSpacing": 0.000560011,
  "DeviceSerialNumber": "167006",
  "DwellTime": 2.1e-06,
  "EchoTime": 0.037,
  "EchoTrainLength": 104,
  "EffectiveEchoSpacing": 0.000560011,
  "FlipAngle": 52,
  "HeudiconvVersion": "0.5.3.post811+g6206e14",
  "ImageComments": "Unaliased MB4/PE3/LB",
  "ImageOrientationPatientDICOM": [0.998349, -0.00403019, 0.0572932, 0.0334675, 0.851501, -0.523283],
  "ImageOrientationText": "Tra>Cor(-31.7)>Sag(2.7)",
  "ImageType": [
    "ORIGINAL",
    "PRIMARY",
    "M",
    "MB",
    "ND",
    "MOSAIC"
],
  "ImagingFrequency": 123.26,
  "InPlanePhaseEncodingDirectionDICOM": "COL",
  "InstitutionAddress": "Chemin Queen-Mary 4565,Montreal,District,CA,H3W 1W5",
  "InstitutionName": "IUGM",
  "InstitutionalDepartmentName": "Department",
  "MRAcquisitionType": "2D",
  "MagneticFieldStrength": 3,
  "Manufacturer": "Siemens",
  "ManufacturersModelName": "Prisma_fit",
  "MatrixCoilMode": "SENSE",
  "Modality": "MR",
  "MultibandAccelerationFactor": 4,
  "PartialFourier": 1,
  "PatientPosition": "HFS",
  "PercentPhaseFOV": 100,
  "PercentSampling": 100,
  "PhaseEncodingDirection": "j",
  "PhaseEncodingSteps": 104,
  "PhaseResolution": 1,
  "PixelBandwidth": 2290,
  "ProcedureStepDescription": "games^mario3",
  "ProtocolName": "func_task-mario3_run-06",
  "PulseSequenceDetails": "%CustomerSeq%\\cmrr_mbep2d_bold",
  "ReceiveCoilActiveElements": "HC1-7;NC1,2",
  "ReceiveCoilName": "HeadNeck_64",
  "ReconMatrixPE": 104,
  "RepetitionTime": 1.49,
  "SAR": 0.0411211,
  "ScanOptions": "FS",
  "ScanningSequence": "EP",
  "SequenceName": "epfid2d1_104",
  "SequenceVariant": "SK\\SS",
  "SeriesDescription": "func_task-mario3_run-06",
  "SeriesNumber": 25,
  "ShimSetting": [616, -7179, -8853, 319, 10, -110, -53, 29],
  "SliceThickness": 2,
  "SliceTiming": [0, 0.785, 0.0975, 0.8825, 0.1975, 0.98, 0.295, 1.0775, 0.3925, 1.1775, 0.49, 1.275, 0.5875, 1.3725, 0.6875, 0, 0.785, 0.0975, 0.8825, 0.1975, 0.98, 0.295, 1.0775, 0.3925, 1.1775, 0.49, 1.275, 0.5875, 1.3725, 0.6875, 0, 0.785, 0.0975, 0.8825, 0.1975, 0.98, 0.295, 1.0775, 0.3925, 1.1775, 0.49, 1.275, 0.5875, 1.3725, 0.6875, 0, 0.785, 0.0975, 0.8825, 0.1975, 0.98, 0.295, 1.0775, 0.3925, 1.1775, 0.49, 1.275, 0.5875, 1.3725, 0.6875],
  "SoftwareVersions": "syngo MR E11",
  "SpacingBetweenSlices": 2,
  "StationName": "MRC35049",
  "TaskName": "mario3",
  "TotalReadoutTime": 0.0576811,
  "TxRefAmp": 249.545,
  "WipMemBlock": "7782a2a9-4474-4950-afe2-faf083bda33e||Sequence: R017 ve11c/master r/75a17815+; Jun 28 2022 16:32:11 by eja",
  "dcmmeta_affine": [
    [-1.9966984987258911, 0.06693509221076965, 0.09335267543792725, 101.9434814453125],
    [0.008060373365879059, 1.703002691268921, -1.0486738681793213, -56.336402893066406],
    [0.11458646506071091, 1.0465664863586426, 1.7004612684249878, -99.49699401855469],
    [0.0, 0.0, 0.0, 1.0]
],
  "dcmmeta_reorient_transform": [
    [0.0, -1.0, 0.0, 103.0],
    [1.0, 0.0, 0.0, 0.0],
    [0.0, 0.0, 1.0, 0.0],
    [0.0, 0.0, 0.0, 1.0]
],
  "dcmmeta_shape": [104, 104, 60, 316],
  "dcmmeta_slice_dim": 2,
  "dcmmeta_version": 0.6,
  "global": {
    "const": {
      "AcquisitionMatrix": [104, 0, 0, 104],
      "AngioFlag": "N",
      "BitsAllocated": 16,
      "BitsStored": 16,
      "BodyPartExamined": "BRAIN",
      "Columns": 832,
      "EchoNumbers": 1,
      "EchoTime": 37.0,
      "EchoTrainLength": 104,
      "FlipAngle": 52.0,
      "HighBit": 15,
      "ImageOrientationPatient": [0.99834925897122, -0.0040301866799, 0.05729323439063, 0.03346754518275, 0.8515013630286, -0.5232832427853],
      "ImagePositionPatient": [-860.00042755841, -736.03189556843, 347.54007843333],
      "ImageType": [
        "ORIGINAL",
        "PRIMARY",
        "M",
        "MB",
        "ND",
        "MOSAIC"
],
      "ImagedNucleus": "1H",
      "ImagingFrequency": 123.260297,
      "InPlanePhaseEncodingDirection": "COL",
      "MRAcquisitionType": "2D",
      "MagneticFieldStrength": 3.0,
      "Manufacturer": "SIEMENS",
      "ManufacturerModelName": "Prisma_fit",
      "Modality": "MR",
      "NumberOfAverages": 1.0,
      "NumberOfPhaseEncodingSteps": 104,
      "PercentPhaseFieldOfView": 100.0,
      "PercentSampling": 100.0,
      "PerformedProcedureStepStartTime": "151822.925000",
      "PhotometricInterpretation": "MONOCHROME2",
      "PixelBandwidth": 2290.0,
      "PixelRepresentation": 0,
      "PixelSpacing": [2.0, 2.0],
      "ProtocolName": "func_task-mario3_run-06",
      "RepetitionTime": 1490.0,
      "Rows": 832,
      "SAR": 0.04112111022599,
      "SamplesPerPixel": 1,
      "ScanOptions": "FS",
      "ScanningSequence": "EP",
      "SequenceName": "epfid2d1_104",
      "SequenceVariant": [
        "SK",
        "SS"
],
      "SeriesDescription": "func_task-mario3_run-06",
      "SeriesNumber": 25,
      "SeriesTime": "164056.133000",
      "SliceLocation": -50.297791269217,
      "SliceThickness": 2.0,
      "SmallestImagePixelValue": 0,
      "SoftwareVersions": "syngo MR E11",
      "SpacingBetweenSlices": 2.0000000251602,
      "SpecificCharacterSet": "ISO_IR 100",
      "StudyID": "1",
      "StudyTime": "151822.692000",
      "TransmitCoilName": "Body",
      "VariableFlipAngleFlag": "N",
      "WindowCenterWidthExplanation": "Algo1",
      "dBdt": 0.0},
    "slices": {}
  },
  "time": {
    "samples": {
      "AcquisitionNumber": [1, 2, 3, 4, 5, 6, 7, 8, 9, 10, 11, 12, 13, 14, 15, 16, 17, 18, 19, 20, 21, 22, 23, 24, 25, 26, 27, 28, 29, 30, 31, 32, 33, 34, 35, 36, 37, 38, 39, 40, 41, 42, 43, 44, 45, 46, 47, 48, 49, 50, 51, 52, 53, 54, 55, 56, 57, 58, 59, 60, 61, 62, 63, 64, 65, 66, 67, 68, 69, 70, 71, 72, 73, 74, 75, 76, 77, 78, 79, 80, 81, 82, 83, 84, 85, 86, 87, 88, 89, 90, 91, 92, 93, 94, 95, 96, 97, 98, 99, 100, 101, 102, 103, 104, 105, 106, 107, 108, 109, 110, 111, 112, 113, 114, 115, 116, 117, 118, 119, 120, 121, 122, 123, 124, 125, 126, 127, 128, 129, 130, 131, 132, 133, 134, 135, 136, 137, 138, 139, 140, 141, 142, 143, 144, 145, 146, 147, 148, 149, 150, 151, 152, 153, 154, 155, 156, 157, 158, 159, 160, 161, 162, 163, 164, 165, 166, 167, 168, 169, 170, 171, 172, 173, 174, 175, 176, 177, 178, 179, 180, 181, 182, 183, 184, 185, 186, 187, 188, 189, 190, 191, 192, 193, 194, 195, 196, 197, 198, 199, 200, 201, 202, 203, 204, 205, 206, 207, 208, 209, 210, 211, 212, 213, 214, 215, 216, 217, 218, 219, 220, 221, 222, 223, 224, 225, 226, 227, 228, 229, 230, 231, 232, 233, 234, 235, 236, 237, 238, 239, 240, 241, 242, 243, 244, 245, 246, 247, 248, 249, 250, 251, 252, 253, 254, 255, 256, 257, 258, 259, 260, 261, 262, 263, 264, 265, 266, 267, 268, 269, 270, 271, 272, 273, 274, 275, 276, 277, 278, 279, 280, 281, 282, 283, 284, 285, 286, 287, 288, 289, 290, 291, 292, 293, 294, 295, 296, 297, 298, 299, 300, 301, 302, 303, 304, 305, 306, 307, 308, 309, 310, 311, 312, 313, 314, 315, 316],
      "AcquisitionTime": ["163933.697500", "163935.187500", "163936.677500", "163938.167500", "163939.657500", "163941.147500", "163942.637500", "163944.127500", "163945.617500", "163947.107500", "163948.597500", "163950.087500", "163951.577500", "163953.067500", "163954.557500", "163956.047500", "163957.537500", "163959.027500", "164000.517500", "164002.007500", "164003.497500", "164004.987500", "164006.477500", "164007.967500", "164009.457500", "164010.947500", "164012.437500", "164013.927500", "164015.417500", "164016.907500", "164018.397500", "164019.887500", "164021.377500", "164022.867500", "164024.357500", "164025.847500", "164027.337500", "164028.827500", "164030.317500", "164031.807500", "164033.297500", "164034.787500", "164036.277500", "164037.767500", "164039.257500", "164040.747500", "164042.237500", "164043.727500", "164045.217500", "164046.707500", "164048.197500", "164049.687500", "164051.177500", "164052.667500", "164054.157500", "164055.647500", "164057.137500", "164058.627500", "164100.117500", "164101.607500", "164103.097500", "164104.587500", "164106.077500", "164107.567500", "164109.057500", "164110.547500", "164112.037500", "164113.527500", "164115.017500", "164116.507500", "164117.997500", "164119.487500", "164120.977500", "164122.467500", "164123.957500", "164125.447500", "164126.937500", "164128.427500", "164129.917500", "164131.407500", "164132.897500", "164134.387500", "164135.877500", "164137.367500", "164138.857500", "164140.347500", "164141.837500", "164143.327500", "164144.817500", "164146.307500", "164147.797500", "164149.287500", "164150.777500", "164152.267500", "164153.757500", "164155.247500", "164156.737500", "164158.227500", "164159.717500", "164201.207500", "164202.697500", "164204.187500", "164205.677500", "164207.167500", "164208.657500", "164210.147500", "164211.637500", "164213.127500", "164214.617500", "164216.107500", "164217.597500", "164219.087500", "164220.577500", "164222.067500", "164223.557500", "164225.047500", "164226.537500", "164228.027500", "164229.517500", "164231.007500", "164232.497500", "164233.987500", "164235.477500", "164236.967500", "164238.457500", "164239.947500", "164241.437500", "164242.927500", "164244.417500", "164245.907500", "164247.397500", "164248.887500", "164250.377500", "164251.867500", "164253.357500", "164254.847500", "164256.337500", "164257.827500", "164259.317500", "164300.807500", "164302.297500", "164303.787500", "164305.277500", "164306.767500", "164308.257500", "164309.747500", "164311.237500", "164312.727500", "164314.217500", "164315.707500", "164317.197500", "164318.687500", "164320.177500", "164321.667500", "164323.157500", "164324.647500", "164326.137500", "164327.627500", "164329.117500", "164330.607500", "164332.097500", "164333.587500", "164335.077500", "164336.567500", "164338.057500", "164339.547500", "164341.037500", "164342.527500", "164344.017500", "164345.507500", "164346.997500", "164348.487500", "164349.977500", "164351.467500", "164352.957500", "164354.447500", "164355.937500", "164357.427500", "164358.917500", "164400.407500", "164401.897500", "164403.387500", "164404.877500", "164406.367500", "164407.857500", "164409.347500", "164410.837500", "164412.327500", "164413.817500", "164415.307500", "164416.797500", "164418.287500", "164419.777500", "164421.267500", "164422.757500", "164424.247500", "164425.737500", "164427.227500", "164428.717500", "164430.207500", "164431.697500", "164433.187500", "164434.677500", "164436.167500", "164437.657500", "164439.147500", "164440.637500", "164442.127500", "164443.617500", "164445.107500", "164446.597500", "164448.087500", "164449.577500", "164451.067500", "164452.557500", "164454.047500", "164455.537500", "164457.027500", "164458.517500", "164500.007500", "164501.497500", "164502.987500", "164504.477500", "164505.967500", "164507.457500", "164508.947500", "164510.437500", "164511.927500", "164513.417500", "164514.907500", "164516.397500", "164517.887500", "164519.377500", "164520.867500", "164522.357500", "164523.847500", "164525.337500", "164526.827500", "164528.317500", "164529.807500", "164531.297500", "164532.787500", "164534.277500", "164535.767500", "164537.257500", "164538.747500", "164540.237500", "164541.727500", "164543.217500", "164544.707500", "164546.197500", "164547.687500", "164549.177500", "164550.667500", "164552.157500", "164553.647500", "164555.137500", "164556.627500", "164558.117500", "164559.607500", "164601.097500", "164602.587500", "164604.077500", "164605.567500", "164607.057500", "164608.547500", "164610.037500", "164611.527500", "164613.017500", "164614.507500", "164615.997500", "164617.487500", "164618.977500", "164620.467500", "164621.957500", "164623.447500", "164624.937500", "164626.427500", "164627.917500", "164629.407500", "164630.897500", "164632.387500", "164633.877500", "164635.367500", "164636.857500", "164638.347500", "164639.837500", "164641.327500", "164642.817500", "164644.307500", "164645.797500", "164647.287500", "164648.777500", "164650.267500", "164651.757500", "164653.247500", "164654.737500", "164656.227500", "164657.717500", "164659.207500", "164700.697500", "164702.187500", "164703.677500", "164705.167500", "164706.657500", "164708.147500", "164709.637500", "164711.127500", "164712.617500", "164714.107500", "164715.597500", "164717.087500", "164718.577500", "164720.067500", "164721.557500", "164723.047500"],
      "ContentTime": ["164056.137000", "164056.141000", "164056.144000", "164056.148000", "164056.151000", "164056.155000", "164056.158000", "164056.161000", "164056.165000", "164056.168000", "164056.171000", "164056.175000", "164056.178000", "164056.181000", "164056.185000", "164056.188000", "164056.191000", "164056.194000", "164056.198000", "164056.201000", "164056.204000", "164056.208000", "164056.211000", "164056.214000", "164056.218000", "164056.221000", "164056.232000", "164056.236000", "164056.239000", "164056.242000", "164056.246000", "164116.077000", "164116.081000", "164116.084000", "164116.090000", "164116.094000", "164116.097000", "164116.100000", "164116.104000", "164116.107000", "164116.110000", "164116.114000", "164116.117000", "164116.120000", "164116.124000", "164116.127000", "164116.130000", "164116.134000", "164116.137000", "164116.140000", "164116.144000", "164116.147000", "164136.076000", "164136.080000", "164136.083000", "164136.089000", "164136.092000", "164136.096000", "164136.099000", "164136.102000", "164136.111000", "164136.115000", "164136.118000", "164136.121000", "164136.125000", "164136.128000", "164136.132000", "164136.135000", "164136.138000", "164136.142000", "164136.145000", "164136.148000", "164156.076000", "164156.080000", "164156.083000", "164156.087000", "164156.090000", "164156.093000", "164156.097000", "164156.101000", "164156.104000", "164156.107000", "164156.111000", "164156.114000", "164156.117000", "164156.121000", "164156.124000", "164156.127000", "164156.131000", "164156.134000", "164156.137000", "164156.141000", "164236.076000", "164236.080000", "164236.083000", "164236.087000", "164236.090000", "164236.093000", "164236.097000", "164236.100000", "164236.104000", "164236.107000", "164236.110000", "164236.114000", "164236.129000", "164236.133000", "164236.136000", "164236.139000", "164236.143000", "164236.146000", "164236.149000", "164236.153000", "164236.156000", "164236.159000", "164236.163000", "164236.166000", "164236.169000", "164236.173000", "164236.176000", "164236.179000", "164236.183000", "164316.076000", "164316.080000", "164316.083000", "164316.087000", "164316.090000", "164316.093000", "164316.097000", "164316.100000", "164316.103000", "164316.107000", "164316.110000", "164316.114000", "164316.117000", "164316.120000", "164316.124000", "164316.127000", "164316.130000", "164316.134000", "164316.137000", "164316.140000", "164316.144000", "164316.147000", "164316.150000", "164316.154000", "164316.157000", "164316.160000", "164316.164000", "164356.076000", "164356.080000", "164356.083000", "164356.087000", "164356.090000", "164356.093000", "164356.097000", "164356.100000", "164356.104000", "164356.107000", "164356.110000", "164356.114000", "164356.117000", "164356.120000", "164356.124000", "164356.127000", "164356.131000", "164356.134000", "164356.137000", "164356.141000", "164356.145000", "164356.148000", "164356.151000", "164356.155000", "164356.158000", "164356.161000", "164356.165000", "164436.076000", "164436.080000", "164436.083000", "164436.087000", "164436.090000", "164436.093000", "164436.097000", "164436.100000", "164436.103000", "164436.107000", "164436.112000", "164436.115000", "164436.118000", "164436.122000", "164436.125000", "164436.129000", "164436.132000", "164436.135000", "164436.139000", "164436.142000", "164436.145000", "164436.149000", "164436.152000", "164436.156000", "164436.159000", "164436.162000", "164436.166000", "164456.077000", "164456.081000", "164456.084000", "164456.088000", "164456.091000", "164456.095000", "164456.099000", "164456.102000", "164456.106000", "164456.109000", "164456.113000", "164456.116000", "164456.120000", "164536.076000", "164536.080000", "164536.083000", "164536.087000", "164536.090000", "164536.094000", "164536.097000", "164536.100000", "164536.104000", "164536.107000", "164536.110000", "164536.114000", "164536.117000", "164536.120000", "164536.124000", "164536.127000", "164536.131000", "164536.134000", "164536.137000", "164536.141000", "164536.144000", "164536.147000", "164536.151000", "164536.154000", "164536.158000", "164536.161000", "164536.164000", "164616.076000", "164616.080000", "164616.083000", "164616.087000", "164616.090000", "164616.093000", "164616.097000", "164616.100000", "164616.104000", "164616.107000", "164616.110000", "164616.114000", "164616.117000", "164616.120000", "164616.124000", "164616.127000", "164616.136000", "164616.140000", "164616.143000", "164616.147000", "164616.150000", "164616.154000", "164616.157000", "164616.160000", "164616.164000", "164616.167000", "164616.170000", "164656.076000", "164656.080000", "164656.083000", "164656.087000", "164656.090000", "164656.094000", "164656.097000", "164656.101000", "164656.104000", "164656.107000", "164656.111000", "164656.114000", "164656.117000", "164656.121000", "164656.124000", "164656.127000", "164656.131000", "164656.134000", "164656.138000", "164656.141000", "164656.144000", "164656.148000", "164656.151000", "164656.154000", "164656.158000", "164656.161000", "164656.176000", "164726.709000", "164726.712000", "164726.716000", "164726.719000", "164726.722000", "164726.726000", "164726.729000", "164726.732000", "164726.736000", "164726.739000", "164726.743000", "164726.746000", "164726.749000", "164726.753000", "164726.756000", "164726.759000", "164726.763000", "164726.766000", "164726.770000", "164726.773000"],
      "InstanceCreationTime": ["164056.137000", "164056.141000", "164056.144000", "164056.148000", "164056.151000", "164056.155000", "164056.158000", "164056.161000", "164056.165000", "164056.168000", "164056.171000", "164056.175000", "164056.178000", "164056.181000", "164056.185000", "164056.188000", "164056.191000", "164056.194000", "164056.198000", "164056.201000", "164056.204000", "164056.208000", "164056.211000", "164056.214000", "164056.218000", "164056.221000", "164056.232000", "164056.236000", "164056.239000", "164056.242000", "164056.246000", "164116.077000", "164116.081000", "164116.084000", "164116.090000", "164116.094000", "164116.097000", "164116.100000", "164116.104000", "164116.107000", "164116.110000", "164116.114000", "164116.117000", "164116.120000", "164116.124000", "164116.127000", "164116.130000", "164116.134000", "164116.137000", "164116.140000", "164116.144000", "164116.147000", "164136.076000", "164136.080000", "164136.083000", "164136.089000", "164136.092000", "164136.096000", "164136.099000", "164136.102000", "164136.111000", "164136.115000", "164136.118000", "164136.121000", "164136.125000", "164136.128000", "164136.132000", "164136.135000", "164136.138000", "164136.142000", "164136.145000", "164136.148000", "164156.076000", "164156.080000", "164156.083000", "164156.087000", "164156.090000", "164156.093000", "164156.097000", "164156.101000", "164156.104000", "164156.107000", "164156.111000", "164156.114000", "164156.117000", "164156.121000", "164156.124000", "164156.127000", "164156.131000", "164156.134000", "164156.137000", "164156.141000", "164236.076000", "164236.080000", "164236.083000", "164236.087000", "164236.090000", "164236.093000", "164236.097000", "164236.100000", "164236.104000", "164236.107000", "164236.110000", "164236.114000", "164236.129000", "164236.133000", "164236.136000", "164236.139000", "164236.143000", "164236.146000", "164236.149000", "164236.153000", "164236.156000", "164236.159000", "164236.163000", "164236.166000", "164236.169000", "164236.173000", "164236.176000", "164236.179000", "164236.183000", "164316.076000", "164316.080000", "164316.083000", "164316.087000", "164316.090000", "164316.093000", "164316.097000", "164316.100000", "164316.103000", "164316.107000", "164316.110000", "164316.114000", "164316.117000", "164316.120000", "164316.124000", "164316.127000", "164316.130000", "164316.134000", "164316.137000", "164316.140000", "164316.144000", "164316.147000", "164316.150000", "164316.154000", "164316.157000", "164316.160000", "164316.164000", "164356.076000", "164356.080000", "164356.083000", "164356.087000", "164356.090000", "164356.093000", "164356.097000", "164356.100000", "164356.104000", "164356.107000", "164356.110000", "164356.114000", "164356.117000", "164356.120000", "164356.124000", "164356.127000", "164356.131000", "164356.134000", "164356.137000", "164356.141000", "164356.145000", "164356.148000", "164356.151000", "164356.155000", "164356.158000", "164356.161000", "164356.165000", "164436.076000", "164436.080000", "164436.083000", "164436.087000", "164436.090000", "164436.093000", "164436.097000", "164436.100000", "164436.103000", "164436.107000", "164436.112000", "164436.115000", "164436.118000", "164436.122000", "164436.125000", "164436.129000", "164436.132000", "164436.135000", "164436.139000", "164436.142000", "164436.145000", "164436.149000", "164436.152000", "164436.156000", "164436.159000", "164436.162000", "164436.166000", "164456.077000", "164456.081000", "164456.084000", "164456.088000", "164456.091000", "164456.095000", "164456.099000", "164456.102000", "164456.106000", "164456.109000", "164456.113000", "164456.116000", "164456.120000", "164536.076000", "164536.080000", "164536.083000", "164536.087000", "164536.090000", "164536.094000", "164536.097000", "164536.100000", "164536.104000", "164536.107000", "164536.110000", "164536.114000", "164536.117000", "164536.120000", "164536.124000", "164536.127000", "164536.131000", "164536.134000", "164536.137000", "164536.141000", "164536.144000", "164536.147000", "164536.151000", "164536.154000", "164536.158000", "164536.161000", "164536.164000", "164616.076000", "164616.080000", "164616.083000", "164616.087000", "164616.090000", "164616.093000", "164616.097000", "164616.100000", "164616.104000", "164616.107000", "164616.110000", "164616.114000", "164616.117000", "164616.120000", "164616.124000", "164616.127000", "164616.136000", "164616.140000", "164616.143000", "164616.147000", "164616.150000", "164616.154000", "164616.157000", "164616.160000", "164616.164000", "164616.167000", "164616.170000", "164656.076000", "164656.080000", "164656.083000", "164656.087000", "164656.090000", "164656.094000", "164656.097000", "164656.101000", "164656.104000", "164656.107000", "164656.111000", "164656.114000", "164656.117000", "164656.121000", "164656.124000", "164656.127000", "164656.131000", "164656.134000", "164656.138000", "164656.141000", "164656.144000", "164656.148000", "164656.151000", "164656.154000", "164656.158000", "164656.161000", "164656.176000", "164726.709000", "164726.712000", "164726.716000", "164726.719000", "164726.722000", "164726.726000", "164726.729000", "164726.732000", "164726.736000", "164726.739000", "164726.743000", "164726.746000", "164726.749000", "164726.753000", "164726.756000", "164726.759000", "164726.763000", "164726.766000", "164726.770000", "164726.773000"],
      "InstanceNumber": [1, 2, 3, 4, 5, 6, 7, 8, 9, 10, 11, 12, 13, 14, 15, 16, 17, 18, 19, 20, 21, 22, 23, 24, 25, 26, 27, 28, 29, 30, 31, 32, 33, 34, 35, 36, 37, 38, 39, 40, 41, 42, 43, 44, 45, 46, 47, 48, 49, 50, 51, 52, 53, 54, 55, 56, 57, 58, 59, 60, 61, 62, 63, 64, 65, 66, 67, 68, 69, 70, 71, 72, 73, 74, 75, 76, 77, 78, 79, 80, 81, 82, 83, 84, 85, 86, 87, 88, 89, 90, 91, 92, 93, 94, 95, 96, 97, 98, 99, 100, 101, 102, 103, 104, 105, 106, 107, 108, 109, 110, 111, 112, 113, 114, 115, 116, 117, 118, 119, 120, 121, 122, 123, 124, 125, 126, 127, 128, 129, 130, 131, 132, 133, 134, 135, 136, 137, 138, 139, 140, 141, 142, 143, 144, 145, 146, 147, 148, 149, 150, 151, 152, 153, 154, 155, 156, 157, 158, 159, 160, 161, 162, 163, 164, 165, 166, 167, 168, 169, 170, 171, 172, 173, 174, 175, 176, 177, 178, 179, 180, 181, 182, 183, 184, 185, 186, 187, 188, 189, 190, 191, 192, 193, 194, 195, 196, 197, 198, 199, 200, 201, 202, 203, 204, 205, 206, 207, 208, 209, 210, 211, 212, 213, 214, 215, 216, 217, 218, 219, 220, 221, 222, 223, 224, 225, 226, 227, 228, 229, 230, 231, 232, 233, 234, 235, 236, 237, 238, 239, 240, 241, 242, 243, 244, 245, 246, 247, 248, 249, 250, 251, 252, 253, 254, 255, 256, 257, 258, 259, 260, 261, 262, 263, 264, 265, 266, 267, 268, 269, 270, 271, 272, 273, 274, 275, 276, 277, 278, 279, 280, 281, 282, 283, 284, 285, 286, 287, 288, 289, 290, 291, 292, 293, 294, 295, 296, 297, 298, 299, 300, 301, 302, 303, 304, 305, 306, 307, 308, 309, 310, 311, 312, 313, 314, 315, 316],
      "LargestImagePixelValue": [43354, 41933, 41816, 41758, 41238, 40984, 42064, 41476, 41494, 41526, 41311, 40812, 40274, 40004, 40054, 39883, 40341, 40069, 39843, 39928, 39942, 39933, 40174, 39925, 39510, 40116, 40385, 39858, 39467, 40322, 40312, 40479, 40084, 39737, 39845, 40102, 40549, 39374, 39876, 39767, 39865, 40580, 41012, 41571, 41465, 40577, 40621, 39962, 40247, 40718, 41569, 41197, 39349, 42079, 40387, 41136, 40126, 40307, 42792, 42926, 42218, 42818, 43490, 43236, 43716, 43153, 41579, 41967, 43016, 40878, 40561, 41807, 40891, 40781, 41780, 41127, 42141, 40835, 40394, 40493, 40872, 40464, 39707, 49190, 40635, 42360, 40799, 40157, 39492, 40445, 40369, 40219, 40149, 40593, 41874, 40351, 40540, 41959, 41805, 42697, 39955, 42305, 40530, 41986, 41684, 41895, 42667, 43386, 42776, 43220, 43761, 43147, 48137, 43487, 41956, 42887, 41205, 41650, 40953, 40170, 40366, 40424, 43446, 41348, 42279, 41641, 40834, 41376, 43377, 43457, 43447, 43846, 41545, 40504, 42171, 41427, 40990, 41889, 40659, 40580, 40414, 40763, 40703, 41307, 40552, 40523, 40911, 40396, 41288, 41386, 41215, 42712, 42791, 42162, 39880, 44664, 43133, 43352, 41725, 42087, 42765, 45012, 43194, 43925, 43349, 43119, 42706, 43281, 43335, 42187, 42341, 42133, 41505, 41316, 41248, 41353, 43500, 41744, 42504, 41661, 42651, 42723, 42288, 43506, 40362, 42738, 45073, 40903, 40680, 41505, 41033, 41854, 40799, 41874, 40495, 43166, 40443, 40849, 39943, 42009, 42510, 41831, 41668, 43553, 41525, 41311, 41684, 40689, 40941, 41518, 42836, 40628, 41313, 42731, 43488, 39402, 43197, 42821, 40982, 42800, 40589, 43766, 40660, 43076, 41522, 41317, 42961, 42063, 43097, 43301, 42439, 42314, 44254, 42940, 42868, 42851, 41958, 42907, 41864, 42019, 42511, 43041, 42892, 42461, 42101, 42550, 42370, 41363, 41200, 41822, 42773, 42362, 42620, 42846, 42692, 42475, 41679, 42878, 42592, 41181, 42111, 40980, 40892, 40638, 40378, 42038, 41309, 41396, 41029, 43385, 42184, 41921, 41311, 42690, 43117, 42403, 42181, 41716, 42894, 41981, 41393, 42788, 43446, 42855, 43228, 42918, 42718, 42103, 42067, 42277, 40317, 40394, 40986, 39910, 41419, 40807, 42110, 40314, 43278, 40959, 42242, 41913, 40916, 41771, 42947, 40270, 40949, 41182, 41398, 42322, 40748, 40311, 40341, 41148, 40097, 40964],
