{
  "AcquisitionMatrixPE": 104,
  "AcquisitionNumber": 1,
  "AcquisitionTime": "16:18:23.285000",
  "BandwidthPerPixelPhaseEncode": 17.17,
  "BaseResolution": 104,
  "BodyPartExamined": "BRAIN",
  "CoilCombinationMethod": "Sum of Squares",
  "ConsistencyInfo": "N4_VE11C_LATEST_20160120",
  "ConversionSoftware": "dcm2niix",
  "ConversionSoftwareVersion": "v1.0.20220505",
  "DerivedVendorReportedEchoSpacing": 0.000560011,
  "DeviceSerialNumber": "167006",
  "DwellTime": 2.1e-06,
  "EchoTime": 0.037,
  "EchoTime1": 0.037,
  "EchoTime2": 0.001,
  "EchoTrainLength": 104,
  "EffectiveEchoSpacing": 0.000560011,
  "FlipAngle": 52,
  "HeudiconvVersion": "0.5.3.post811+g6206e14",
  "ImageComments": "Unaliased MB4/PE3/LB",
  "ImageOrientationPatientDICOM": [0.998349, -0.00403019, 0.0572932, 0.0334675, 0.851501, -0.523283],
  "ImageOrientationText": "Tra>Cor(-31.7)>Sag(2.7)",
  "ImageType": [
    "ORIGINAL",
    "PRIMARY",
    "P",
    "MB",
    "ND",
    "MOSAIC",
    "PHASE"
],
  "ImagingFrequency": 123.26,
  "InPlanePhaseEncodingDirectionDICOM": "COL",
  "InstitutionAddress": "Chemin Queen-Mary 4565,Montreal,District,CA,H3W 1W5",
  "InstitutionName": "IUGM",
  "InstitutionalDepartmentName": "Department",
  "MRAcquisitionType": "2D",
  "MagneticFieldStrength": 3,
  "Manufacturer": "Siemens",
  "ManufacturersModelName": "Prisma_fit",
  "MatrixCoilMode": "SENSE",
  "Modality": "MR",
  "MultibandAccelerationFactor": 4,
  "PartialFourier": 1,
  "PatientPosition": "HFS",
  "PercentPhaseFOV": 100,
  "PercentSampling": 100,
  "PhaseEncodingDirection": "j",
  "PhaseEncodingSteps": 104,
  "PhaseResolution": 1,
  "PixelBandwidth": 2290,
  "ProcedureStepDescription": "games^mario3",
  "ProtocolName": "func_task-mario3_run-04",
  "PulseSequenceDetails": "%CustomerSeq%\\cmrr_mbep2d_bold",
  "ReceiveCoilActiveElements": "HC1-7;NC1,2",
  "ReceiveCoilName": "HeadNeck_64",
  "ReconMatrixPE": 104,
  "RepetitionTime": 1.49,
  "SAR": 0.0411211,
  "ScanOptions": "FS",
  "ScanningSequence": "EP",
  "SequenceName": "epfid2d1_104",
  "SequenceVariant": "SK\\SS",
  "SeriesDescription": "func_task-mario3_run-04",
  "SeriesNumber": 20,
  "ShimSetting": [616, -7179, -8853, 319, 10, -110, -53, 29],
  "SliceThickness": 2,
  "SliceTiming": [0, 0.7825, 0.0975, 0.8825, 0.195, 0.98, 0.2925, 1.0775, 0.3925, 1.175, 0.49, 1.2725, 0.5875, 1.3725, 0.685, 0, 0.7825, 0.0975, 0.8825, 0.195, 0.98, 0.2925, 1.0775, 0.3925, 1.175, 0.49, 1.2725, 0.5875, 1.3725, 0.685, 0, 0.7825, 0.0975, 0.8825, 0.195, 0.98, 0.2925, 1.0775, 0.3925, 1.175, 0.49, 1.2725, 0.5875, 1.3725, 0.685, 0, 0.7825, 0.0975, 0.8825, 0.195, 0.98, 0.2925, 1.0775, 0.3925, 1.175, 0.49, 1.2725, 0.5875, 1.3725, 0.685],
  "SoftwareVersions": "syngo MR E11",
  "SpacingBetweenSlices": 2,
  "StationName": "MRC35049",
  "TaskName": "mario3",
  "TotalReadoutTime": 0.0576811,
  "TxRefAmp": 249.545,
  "WipMemBlock": "dd3af92d-10e0-4188-aa02-cb5b72f6cc2c||Sequence: R017 ve11c/master r/75a17815+; Jun 28 2022 16:32:11 by eja",
  "dcmmeta_affine": [
    [-1.9966984987258911, 0.06693509221076965, 0.09335267543792725, 101.9434814453125],
    [0.008060373365879059, 1.703002691268921, -1.0486738681793213, -56.336402893066406],
    [0.11458646506071091, 1.0465664863586426, 1.7004612684249878, -99.49699401855469],
    [0.0, 0.0, 0.0, 1.0]
],
  "dcmmeta_reorient_transform": [
    [0.0, -1.0, 0.0, 103.0],
    [1.0, 0.0, 0.0, 0.0],
    [0.0, 0.0, 1.0, 0.0],
    [0.0, 0.0, 0.0, 1.0]
],
  "dcmmeta_shape": [104, 104, 60, 343],
  "dcmmeta_slice_dim": 2,
  "dcmmeta_version": 0.6,
  "global": {
    "const": {
      "AcquisitionMatrix": [104, 0, 0, 104],
      "AngioFlag": "N",
      "BitsAllocated": 16,
      "BitsStored": 16,
      "BodyPartExamined": "BRAIN",
      "Columns": 832,
      "EchoNumbers": 1,
      "EchoTime": 37.0,
      "EchoTrainLength": 104,
      "FlipAngle": 52.0,
      "HighBit": 15,
      "ImageOrientationPatient": [0.99834925897122, -0.0040301866799, 0.05729323439063, 0.03346754518275, 0.8515013630286, -0.5232832427853],
      "ImagePositionPatient": [-860.00042755841, -736.03189556843, 347.54007843333],
      "ImageType": [
        "ORIGINAL",
        "PRIMARY",
        "P",
        "MB",
        "ND",
        "MOSAIC"
],
      "ImagedNucleus": "1H",
      "ImagingFrequency": 123.260296,
      "InPlanePhaseEncodingDirection": "COL",
      "LargestImagePixelValue": 4095,
      "MRAcquisitionType": "2D",
      "MagneticFieldStrength": 3.0,
      "Manufacturer": "SIEMENS",
      "ManufacturerModelName": "Prisma_fit",
      "Modality": "MR",
      "NumberOfAverages": 1.0,
      "NumberOfPhaseEncodingSteps": 104,
      "PercentPhaseFieldOfView": 100.0,
      "PercentSampling": 100.0,
      "PerformedProcedureStepStartTime": "151822.925000",
      "PhotometricInterpretation": "MONOCHROME2",
      "PixelBandwidth": 2290.0,
      "PixelRepresentation": 0,
      "PixelSpacing": [2.0, 2.0],
      "ProtocolName": "func_task-mario3_run-04",
      "RepetitionTime": 1490.0,
      "RescaleIntercept": -4096.0,
      "RescaleSlope": 2.0,
      "RescaleType": "US",
      "Rows": 832,
      "SAR": 0.04112111022599,
      "SamplesPerPixel": 1,
      "ScanOptions": "FS",
      "ScanningSequence": "EP",
      "SequenceName": "epfid2d1_104",
      "SequenceVariant": [
        "SK",
        "SS"
],
      "SeriesDescription": "func_task-mario3_run-04",
      "SeriesNumber": 20,
      "SeriesTime": "161941.336000",
      "SliceLocation": -50.297791269217,
      "SliceThickness": 2.0,
      "SmallestImagePixelValue": 0,
      "SoftwareVersions": "syngo MR E11",
      "SpacingBetweenSlices": 2.0000000251602,
      "SpecificCharacterSet": "ISO_IR 100",
      "StudyID": "1",
      "StudyTime": "151822.692000",
      "TransmitCoilName": "Body",
      "VariableFlipAngleFlag": "N",
      "WindowCenterWidthExplanation": "Algo1",
      "dBdt": 0.0},
    "slices": {}
  },
  "time": {
    "samples": {
      "AcquisitionNumber": [1, 2, 3, 4, 5, 6, 7, 8, 9, 10, 11, 12, 13, 14, 15, 16, 17, 18, 19, 20, 21, 22, 23, 24, 25, 26, 27, 28, 29, 30, 31, 32, 33, 34, 35, 36, 37, 38, 39, 40, 41, 42, 43, 44, 45, 46, 47, 48, 49, 50, 51, 52, 53, 54, 55, 56, 57, 58, 59, 60, 61, 62, 63, 64, 65, 66, 67, 68, 69, 70, 71, 72, 73, 74, 75, 76, 77, 78, 79, 80, 81, 82, 83, 84, 85, 86, 87, 88, 89, 90, 91, 92, 93, 94, 95, 96, 97, 98, 99, 100, 101, 102, 103, 104, 105, 106, 107, 108, 109, 110, 111, 112, 113, 114, 115, 116, 117, 118, 119, 120, 121, 122, 123, 124, 125, 126, 127, 128, 129, 130, 131, 132, 133, 134, 135, 136, 137, 138, 139, 140, 141, 142, 143, 144, 145, 146, 147, 148, 149, 150, 151, 152, 153, 154, 155, 156, 157, 158, 159, 160, 161, 162, 163, 164, 165, 166, 167, 168, 169, 170, 171, 172, 173, 174, 175, 176, 177, 178, 179, 180, 181, 182, 183, 184, 185, 186, 187, 188, 189, 190, 191, 192, 193, 194, 195, 196, 197, 198, 199, 200, 201, 202, 203, 204, 205, 206, 207, 208, 209, 210, 211, 212, 213, 214, 215, 216, 217, 218, 219, 220, 221, 222, 223, 224, 225, 226, 227, 228, 229, 230, 231, 232, 233, 234, 235, 236, 237, 238, 239, 240, 241, 242, 243, 244, 245, 246, 247, 248, 249, 250, 251, 252, 253, 254, 255, 256, 257, 258, 259, 260, 261, 262, 263, 264, 265, 266, 267, 268, 269, 270, 271, 272, 273, 274, 275, 276, 277, 278, 279, 280, 281, 282, 283, 284, 285, 286, 287, 288, 289, 290, 291, 292, 293, 294, 295, 296, 297, 298, 299, 300, 301, 302, 303, 304, 305, 306, 307, 308, 309, 310, 311, 312, 313, 314, 315, 316, 317, 318, 319, 320, 321, 322, 323, 324, 325, 326, 327, 328, 329, 330, 331, 332, 333, 334, 335, 336, 337, 338, 339, 340, 341, 342, 343],
      "AcquisitionTime": ["161823.285000", "161824.775000", "161826.265000", "161827.755000", "161829.245000", "161830.735000", "161832.225000", "161833.715000", "161835.205000", "161836.695000", "161838.185000", "161839.675000", "161841.165000", "161842.655000", "161844.145000", "161845.635000", "161847.125000", "161848.615000", "161850.105000", "161851.595000", "161853.085000", "161854.575000", "161856.065000", "161857.555000", "161859.045000", "161900.535000", "161902.025000", "161903.515000", "161905.005000", "161906.495000", "161907.985000", "161909.475000", "161910.965000", "161912.455000", "161913.945000", "161915.435000", "161916.925000", "161918.415000", "161919.905000", "161921.395000", "161922.885000", "161924.375000", "161925.865000", "161927.355000", "161928.845000", "161930.335000", "161931.825000", "161933.315000", "161934.805000", "161936.295000", "161937.785000", "161939.275000", "161940.765000", "161942.255000", "161943.745000", "161945.235000", "161946.725000", "161948.215000", "161949.705000", "161951.195000", "161952.685000", "161954.175000", "161955.665000", "161957.155000", "161958.645000", "162000.135000", "162001.625000", "162003.115000", "162004.605000", "162006.095000", "162007.585000", "162009.075000", "162010.565000", "162012.055000", "162013.545000", "162015.035000", "162016.525000", "162018.015000", "162019.505000", "162020.995000", "162022.485000", "162023.975000", "162025.465000", "162026.955000", "162028.445000", "162029.935000", "162031.425000", "162032.915000", "162034.405000", "162035.895000", "162037.385000", "162038.875000", "162040.365000", "162041.855000", "162043.345000", "162044.835000", "162046.325000", "162047.815000", "162049.305000", "162050.795000", "162052.285000", "162053.775000", "162055.265000", "162056.755000", "162058.245000", "162059.735000", "162101.225000", "162102.715000", "162104.205000", "162105.695000", "162107.185000", "162108.675000", "162110.165000", "162111.655000", "162113.145000", "162114.635000", "162116.125000", "162117.615000", "162119.105000", "162120.595000", "162122.085000", "162123.575000", "162125.065000", "162126.555000", "162128.045000", "162129.535000", "162131.025000", "162132.515000", "162134.005000", "162135.495000", "162136.985000", "162138.475000", "162139.965000", "162141.455000", "162142.945000", "162144.435000", "162145.925000", "162147.415000", "162148.905000", "162150.395000", "162151.885000", "162153.375000", "162154.865000", "162156.355000", "162157.845000", "162159.335000", "162200.825000", "162202.315000", "162203.805000", "162205.295000", "162206.785000", "162208.275000", "162209.765000", "162211.255000", "162212.745000", "162214.235000", "162215.725000", "162217.215000", "162218.705000", "162220.195000", "162221.685000", "162223.175000", "162224.665000", "162226.155000", "162227.645000", "162229.135000", "162230.625000", "162232.115000", "162233.605000", "162235.095000", "162236.585000", "162238.075000", "162239.565000", "162241.055000", "162242.545000", "162244.035000", "162245.525000", "162247.015000", "162248.505000", "162249.995000", "162251.485000", "162252.975000", "162254.465000", "162255.955000", "162257.445000", "162258.935000", "162300.425000", "162301.915000", "162303.405000", "162304.895000", "162306.385000", "162307.875000", "162309.365000", "162310.855000", "162312.345000", "162313.835000", "162315.325000", "162316.815000", "162318.305000", "162319.795000", "162321.285000", "162322.775000", "162324.265000", "162325.755000", "162327.245000", "162328.735000", "162330.225000", "162331.715000", "162333.205000", "162334.695000", "162336.185000", "162337.675000", "162339.165000", "162340.655000", "162342.145000", "162343.635000", "162345.125000", "162346.615000", "162348.105000", "162349.595000", "162351.085000", "162352.575000", "162354.065000", "162355.555000", "162357.045000", "162358.535000", "162400.025000", "162401.515000", "162403.005000", "162404.495000", "162405.985000", "162407.475000", "162408.965000", "162410.455000", "162411.945000", "162413.435000", "162414.925000", "162416.415000", "162417.905000", "162419.395000", "162420.885000", "162422.375000", "162423.865000", "162425.355000", "162426.845000", "162428.335000", "162429.825000", "162431.315000", "162432.805000", "162434.295000", "162435.785000", "162437.275000", "162438.765000", "162440.255000", "162441.745000", "162443.235000", "162444.725000", "162446.215000", "162447.705000", "162449.195000", "162450.685000", "162452.175000", "162453.665000", "162455.155000", "162456.645000", "162458.135000", "162459.625000", "162501.115000", "162502.605000", "162504.095000", "162505.585000", "162507.075000", "162508.565000", "162510.055000", "162511.545000", "162513.035000", "162514.525000", "162516.015000", "162517.505000", "162518.995000", "162520.485000", "162521.975000", "162523.465000", "162524.955000", "162526.445000", "162527.935000", "162529.425000", "162530.915000", "162532.405000", "162533.895000", "162535.385000", "162536.875000", "162538.365000", "162539.855000", "162541.345000", "162542.835000", "162544.325000", "162545.815000", "162547.305000", "162548.795000", "162550.285000", "162551.775000", "162553.265000", "162554.755000", "162556.245000", "162557.735000", "162559.225000", "162600.715000", "162602.205000", "162603.695000", "162605.185000", "162606.675000", "162608.165000", "162609.655000", "162611.145000", "162612.635000", "162614.125000", "162615.615000", "162617.105000", "162618.595000", "162620.085000", "162621.575000", "162623.065000", "162624.555000", "162626.045000", "162627.535000", "162629.025000", "162630.515000", "162632.005000", "162633.495000", "162634.985000", "162636.475000", "162637.965000", "162639.455000", "162640.945000", "162642.435000", "162643.925000", "162645.415000", "162646.905000", "162648.395000", "162649.885000", "162651.375000", "162652.865000"],
      "ContentTime": ["161941.338000", "161941.341000", "161941.343000", "161941.346000", "161941.349000", "161941.355000", "161941.358000", "161941.360000", "161941.363000", "161941.366000", "161941.368000", "161941.371000", "161941.373000", "161941.376000", "161941.378000", "161941.381000", "161941.383000", "161941.386000", "161941.388000", "161941.391000", "161941.393000", "161941.396000", "161941.398000", "161941.401000", "161941.403000", "161941.406000", "161941.408000", "161941.411000", "162001.725000", "162001.728000", "162001.730000", "162001.733000", "162001.735000", "162001.738000", "162001.741000", "162001.743000", "162001.746000", "162001.748000", "162001.751000", "162001.753000", "162001.756000", "162001.759000", "162001.761000", "162001.764000", "162001.766000", "162001.805000", "162001.807000", "162001.810000", "162021.289000", "162021.292000", "162021.295000", "162021.297000", "162021.300000", "162021.302000", "162021.305000", "162021.307000", "162021.310000", "162021.313000", "162021.315000", "162021.318000", "162021.320000", "162021.323000", "162021.325000", "162021.328000", "162021.330000", "162021.333000", "162021.335000", "162021.338000", "162041.283000", "162041.285000", "162041.288000", "162041.290000", "162041.293000", "162041.296000", "162041.298000", "162041.301000", "162041.304000", "162041.306000", "162041.309000", "162041.311000", "162041.314000", "162041.316000", "162041.319000", "162041.321000", "162041.324000", "162041.326000", "162041.329000", "162041.332000", "162121.336000", "162121.339000", "162121.342000", "162121.344000", "162121.347000", "162121.350000", "162121.357000", "162121.360000", "162121.362000", "162121.365000", "162121.367000", "162121.370000", "162121.372000", "162121.375000", "162121.378000", "162121.380000", "162121.383000", "162121.385000", "162121.388000", "162121.391000", "162121.393000", "162121.396000", "162121.398000", "162121.401000", "162121.404000", "162121.406000", "162121.409000", "162121.411000", "162121.414000", "162121.416000", "162201.328000", "162201.331000", "162201.333000", "162201.346000", "162201.348000", "162201.352000", "162201.355000", "162201.357000", "162201.360000", "162201.362000", "162201.365000", "162201.367000", "162201.370000", "162201.372000", "162201.375000", "162201.378000", "162201.380000", "162201.383000", "162201.385000", "162201.388000", "162201.390000", "162201.393000", "162201.395000", "162201.398000", "162201.401000", "162201.403000", "162201.406000", "162241.318000", "162241.321000", "162241.323000", "162241.326000", "162241.328000", "162241.331000", "162241.334000", "162241.336000", "162241.339000", "162241.341000", "162241.344000", "162241.346000", "162241.349000", "162241.351000", "162241.354000", "162241.356000", "162241.359000", "162241.361000", "162241.364000", "162241.367000", "162241.369000", "162241.372000", "162241.374000", "162241.377000", "162241.379000", "162241.382000", "162241.384000", "162321.314000", "162321.317000", "162321.319000", "162321.322000", "162321.324000", "162321.327000", "162321.330000", "162321.332000", "162321.335000", "162321.337000", "162321.340000", "162321.342000", "162321.345000", "162321.347000", "162321.350000", "162321.353000", "162321.355000", "162321.358000", "162321.360000", "162321.363000", "162321.365000", "162321.368000", "162321.371000", "162321.373000", "162321.376000", "162321.379000", "162321.381000", "162401.310000", "162401.313000", "162401.316000", "162401.318000", "162401.321000", "162401.324000", "162401.326000", "162401.329000", "162401.331000", "162401.334000", "162401.337000", "162401.339000", "162401.342000", "162401.344000", "162401.347000", "162401.349000", "162401.352000", "162401.354000", "162401.357000", "162401.360000", "162401.362000", "162401.365000", "162401.369000", "162401.372000", "162401.375000", "162401.377000", "162401.380000", "162441.342000", "162441.345000", "162441.347000", "162441.350000", "162441.353000", "162441.355000", "162441.358000", "162441.360000", "162441.363000", "162441.365000", "162441.368000", "162441.370000", "162441.373000", "162441.376000", "162441.378000", "162441.381000", "162441.383000", "162441.386000", "162441.388000", "162441.391000", "162441.393000", "162441.396000", "162441.399000", "162441.401000", "162441.404000", "162441.406000", "162441.409000", "162501.249000", "162501.252000", "162501.254000", "162501.257000", "162501.259000", "162501.262000", "162501.264000", "162501.267000", "162501.269000", "162501.272000", "162501.274000", "162501.277000", "162501.280000", "162541.314000", "162541.317000", "162541.320000", "162541.322000", "162541.325000", "162541.327000", "162541.330000", "162541.332000", "162541.335000", "162541.337000", "162541.340000", "162541.343000", "162541.345000", "162541.348000", "162541.350000", "162541.353000", "162541.355000", "162541.358000", "162541.361000", "162541.363000", "162541.366000", "162541.368000", "162541.371000", "162541.373000", "162541.376000", "162541.379000", "162541.381000", "162621.305000", "162621.308000", "162621.311000", "162621.313000", "162621.316000", "162621.318000", "162621.321000", "162621.323000", "162621.326000", "162621.329000", "162621.331000", "162621.334000", "162621.336000", "162621.339000", "162621.341000", "162621.344000", "162621.346000", "162621.349000", "162621.352000", "162621.354000", "162621.357000", "162621.359000", "162621.362000", "162621.364000", "162621.367000", "162621.369000", "162621.372000", "162655.900000", "162655.903000", "162655.905000", "162655.908000", "162655.911000", "162655.913000", "162655.920000", "162655.922000", "162655.925000", "162655.927000", "162655.930000", "162655.932000", "162655.935000", "162655.938000", "162655.940000", "162655.943000", "162655.946000", "162655.948000", "162655.951000", "162655.953000", "162655.956000", "162655.958000", "162655.961000"],
      "InstanceCreationTime": ["161941.338000", "161941.341000", "161941.343000", "161941.346000", "161941.349000", "161941.355000", "161941.358000", "161941.360000", "161941.363000", "161941.366000", "161941.368000", "161941.371000", "161941.373000", "161941.376000", "161941.378000", "161941.381000", "161941.383000", "161941.386000", "161941.388000", "161941.391000", "161941.393000", "161941.396000", "161941.398000", "161941.401000", "161941.403000", "161941.406000", "161941.408000", "161941.411000", "162001.725000", "162001.728000", "162001.730000", "162001.733000", "162001.735000", "162001.738000", "162001.741000", "162001.743000", "162001.746000", "162001.748000", "162001.751000", "162001.753000", "162001.756000", "162001.759000", "162001.761000", "162001.764000", "162001.766000", "162001.805000", "162001.807000", "162001.810000", "162021.289000", "162021.292000", "162021.295000", "162021.297000", "162021.300000", "162021.302000", "162021.305000", "162021.307000", "162021.310000", "162021.313000", "162021.315000", "162021.318000", "162021.320000", "162021.323000", "162021.325000", "162021.328000", "162021.330000", "162021.333000", "162021.335000", "162021.338000", "162041.283000", "162041.285000", "162041.288000", "162041.290000", "162041.293000", "162041.296000", "162041.298000", "162041.301000", "162041.304000", "162041.306000", "162041.309000", "162041.311000", "162041.314000", "162041.316000", "162041.319000", "162041.321000", "162041.324000", "162041.326000", "162041.329000", "162041.332000", "162121.336000", "162121.339000", "162121.342000", "162121.344000", "162121.347000", "162121.350000", "162121.357000", "162121.360000", "162121.362000", "162121.365000", "162121.367000", "162121.370000", "162121.372000", "162121.375000", "162121.378000", "162121.380000", "162121.383000", "162121.385000", "162121.388000", "162121.391000", "162121.393000", "162121.396000", "162121.398000", "162121.401000", "162121.404000", "162121.406000", "162121.409000", "162121.411000", "162121.414000", "162121.416000", "162201.328000", "162201.331000", "162201.333000", "162201.346000", "162201.348000", "162201.352000", "162201.355000", "162201.357000", "162201.360000", "162201.362000", "162201.365000", "162201.367000", "162201.370000", "162201.372000", "162201.375000", "162201.378000", "162201.380000", "162201.383000", "162201.385000", "162201.388000", "162201.390000", "162201.393000", "162201.395000", "162201.398000", "162201.401000", "162201.403000", "162201.406000", "162241.318000", "162241.321000", "162241.323000", "162241.326000", "162241.328000", "162241.331000", "162241.334000", "162241.336000", "162241.339000", "162241.341000", "162241.344000", "162241.346000", "162241.349000", "162241.351000", "162241.354000", "162241.356000", "162241.359000", "162241.361000", "162241.364000", "162241.367000", "162241.369000", "162241.372000", "162241.374000", "162241.377000", "162241.379000", "162241.382000", "162241.384000", "162321.314000", "162321.317000", "162321.319000", "162321.322000", "162321.324000", "162321.327000", "162321.330000", "162321.332000", "162321.335000", "162321.337000", "162321.340000", "162321.342000", "162321.345000", "162321.347000", "162321.350000", "162321.353000", "162321.355000", "162321.358000", "162321.360000", "162321.363000", "162321.365000", "162321.368000", "162321.371000", "162321.373000", "162321.376000", "162321.379000", "162321.381000", "162401.310000", "162401.313000", "162401.316000", "162401.318000", "162401.321000", "162401.324000", "162401.326000", "162401.329000", "162401.331000", "162401.334000", "162401.337000", "162401.339000", "162401.342000", "162401.344000", "162401.347000", "162401.349000", "162401.352000", "162401.354000", "162401.357000", "162401.360000", "162401.362000", "162401.365000", "162401.369000", "162401.372000", "162401.375000", "162401.377000", "162401.380000", "162441.342000", "162441.345000", "162441.347000", "162441.350000", "162441.353000", "162441.355000", "162441.358000", "162441.360000", "162441.363000", "162441.365000", "162441.368000", "162441.370000", "162441.373000", "162441.376000", "162441.378000", "162441.381000", "162441.383000", "162441.386000", "162441.388000", "162441.391000", "162441.393000", "162441.396000", "162441.399000", "162441.401000", "162441.404000", "162441.406000", "162441.409000", "162501.249000", "162501.252000", "162501.254000", "162501.257000", "162501.259000", "162501.262000", "162501.264000", "162501.267000", "162501.269000", "162501.272000", "162501.274000", "162501.277000", "162501.280000", "162541.314000", "162541.317000", "162541.320000", "162541.322000", "162541.325000", "162541.327000", "162541.330000", "162541.332000", "162541.335000", "162541.337000", "162541.340000", "162541.343000", "162541.345000", "162541.348000", "162541.350000", "162541.353000", "162541.355000", "162541.358000", "162541.361000", "162541.363000", "162541.366000", "162541.368000", "162541.371000", "162541.373000", "162541.376000", "162541.379000", "162541.381000", "162621.305000", "162621.308000", "162621.311000", "162621.313000", "162621.316000", "162621.318000", "162621.321000", "162621.323000", "162621.326000", "162621.329000", "162621.331000", "162621.334000", "162621.336000", "162621.339000", "162621.341000", "162621.344000", "162621.346000", "162621.349000", "162621.352000", "162621.354000", "162621.357000", "162621.359000", "162621.362000", "162621.364000", "162621.367000", "162621.369000", "162621.372000", "162655.900000", "162655.903000", "162655.905000", "162655.908000", "162655.911000", "162655.913000", "162655.920000", "162655.922000", "162655.925000", "162655.927000", "162655.930000", "162655.932000", "162655.935000", "162655.938000", "162655.940000", "162655.943000", "162655.946000", "162655.948000", "162655.951000", "162655.953000", "162655.956000", "162655.958000", "162655.961000"],
      "InstanceNumber": [1, 2, 3, 4, 5, 6, 7, 8, 9, 10, 11, 12, 13, 14, 15, 16, 17, 18, 19, 20, 21, 22, 23, 24, 25, 26, 27, 28, 29, 30, 31, 32, 33, 34, 35, 36, 37, 38, 39, 40, 41, 42, 43, 44, 45, 46, 47, 48, 49, 50, 51, 52, 53, 54, 55, 56, 57, 58, 59, 60, 61, 62, 63, 64, 65, 66, 67, 68, 69, 70, 71, 72, 73, 74, 75, 76, 77, 78, 79, 80, 81, 82, 83, 84, 85, 86, 87, 88, 89, 90, 91, 92, 93, 94, 95, 96, 97, 98, 99, 100, 101, 102, 103, 104, 105, 106, 107, 108, 109, 110, 111, 112, 113, 114, 115, 116, 117, 118, 119, 120, 121, 122, 123, 124, 125, 126, 127, 128, 129, 130, 131, 132, 133, 134, 135, 136, 137, 138, 139, 140, 141, 142, 143, 144, 145, 146, 147, 148, 149, 150, 151, 152, 153, 154, 155, 156, 157, 158, 159, 160, 161, 162, 163, 164, 165, 166, 167, 168, 169, 170, 171, 172, 173, 174, 175, 176, 177, 178, 179, 180, 181, 182, 183, 184, 185, 186, 187, 188, 189, 190, 191, 192, 193, 194, 195, 196, 197, 198, 199, 200, 201, 202, 203, 204, 205, 206, 207, 208, 209, 210, 211, 212, 213, 214, 215, 216, 217, 218, 219, 220, 221, 222, 223, 224, 225, 226, 227, 228, 229, 230, 231, 232, 233, 234, 235, 236, 237, 238, 239, 240, 241, 242, 243, 244, 245, 246, 247, 248, 249, 250, 251, 252, 253, 254, 255, 256, 257, 258, 259, 260, 261, 262, 263, 264, 265, 266, 267, 268, 269, 270, 271, 272, 273, 274, 275, 276, 277, 278, 279, 280, 281, 282, 283, 284, 285, 286, 287, 288, 289, 290, 291, 292, 293, 294, 295, 296, 297, 298, 299, 300, 301, 302, 303, 304, 305, 306, 307, 308, 309, 310, 311, 312, 313, 314, 315, 316, 317, 318, 319, 320, 321, 322, 323, 324, 325, 326, 327, 328, 329, 330, 331, 332, 333, 334, 335, 336, 337, 338, 339, 340, 341, 342, 343],
      "WindowCenter": [4864.0, 4802.0, 4828.0, 4866.0, 4868.0, 4866.0, 4862.0, 4826.0, 4862.0, 4896.0, 4858.0, 4732.0, 4762.0, 4800.0, 4842.0, 4872.0, 4866.0, 4712.0, 4708.0, 4738.0, 4766.0, 4858.0, 4892.0, 4902.0, 4894.0, 4858.0, 4828.0, 4868.0, 4866.0, 4872.0, 4870.0, 4862.0, 4802.0, 4664.0, 4708.0, 4802.0, 4710.0, 4738.0, 4820.0, 4864.0, 4902.0, 4906.0, 4900.0, 4836.0, 4794.0, 4794.0, 4740.0, 4734.0, 4738.0, 4868.0, 4866.0, 4902.0, 4898.0, 4898.0, 4866.0, 4772.0, 4744.0, 4736.0, 4768.0, 4834.0, 4804.0, 4870.0, 4872.0, 4900.0, 4868.0, 4836.0, 4802.0, 4746.0, 4668.0, 4692.0, 4736.0, 4858.0, 4902.0, 4906.0, 4930.0, 4862.0, 4768.0, 4762.0, 4772.0, 4742.0, 4714.0, 4796.0, 4770.0, 4898.0, 4896.0, 4902.0, 4900.0, 4838.0, 4836.0, 4804.0, 4776.0, 4832.0, 4834.0, 4772.0, 4746.0, 4802.0, 4776.0, 4830.0, 4864.0, 4902.0, 4804.0, 4766.0, 4898.0, 4900.0, 4900.0, 4864.0, 4810.0, 4768.0, 4744.0, 4768.0, 4774.0, 4808.0, 4836.0, 4864.0, 4826.0, 4742.0, 4798.0, 4868.0, 4880.0, 4874.0, 4868.0, 4834.0, 4804.0, 4798.0, 4776.0, 4776.0, 4802.0, 4840.0, 4870.0, 4866.0, 4840.0, 4828.0, 4806.0, 4810.0, 4804.0, 4796.0, 4830.0, 4838.0, 4874.0, 4770.0, 4736.0, 4764.0, 4822.0, 4834.0, 4864.0, 4868.0, 4868.0, 4860.0, 4832.0, 4824.0, 4766.0, 4766.0, 4790.0, 4828.0, 4870.0, 4902.0, 4902.0, 4834.0, 4832.0, 4804.0, 4764.0, 4774.0, 4834.0, 4832.0, 4828.0, 4840.0, 4870.0, 4834.0, 4806.0, 4804.0, 4804.0, 4798.0, 4804.0, 4810.0, 4830.0, 4862.0, 4864.0, 4870.0, 4894.0, 4864.0, 4840.0, 4740.0, 4742.0, 4736.0, 4766.0, 4770.0, 4862.0, 4840.0, 4894.0, 4902.0, 4840.0, 4862.0, 4800.0, 4806.0, 4800.0, 4804.0, 4798.0, 4802.0, 4842.0, 4836.0, 4842.0, 4870.0, 4876.0, 4868.0, 4870.0, 4872.0, 4832.0, 4744.0, 4742.0, 4744.0, 4772.0, 4804.0, 4870.0, 4898.0, 4876.0, 4900.0, 4900.0, 4842.0, 4808.0, 4714.0, 4712.0, 4808.0, 4838.0, 4864.0, 4896.0, 4874.0, 4870.0, 4870.0, 4842.0, 4830.0, 4800.0, 4800.0, 4802.0, 4804.0, 4834.0, 4864.0, 4870.0, 4870.0, 4836.0, 4804.0, 4808.0, 4806.0, 4832.0, 4834.0, 4842.0, 4864.0, 4836.0, 4834.0, 4776.0, 4766.0, 4772.0, 4838.0, 4894.0, 4862.0, 4870.0, 4870.0, 4830.0, 4830.0, 4800.0, 4768.0, 4798.0, 4838.0, 4844.0, 4874.0, 4872.0, 4842.0, 4866.0, 4834.0, 4828.0, 4802.0, 4810.0, 4834.0, 4838.0, 4838.0, 4796.0, 4840.0, 4806.0, 4740.0, 4796.0, 4838.0, 4866.0, 4864.0, 4862.0, 4836.0, 4840.0, 4832.0, 4802.0, 4798.0, 4684.0, 4798.0, 4808.0, 4870.0, 4904.0, 4838.0, 4710.0, 4734.0, 4764.0, 4828.0, 4858.0, 4868.0, 4836.0, 4800.0, 4804.0, 4800.0, 4768.0, 4822.0, 4896.0, 4906.0, 4868.0, 4870.0, 4840.0, 4770.0, 4768.0, 4742.0, 4744.0, 4766.0, 4834.0, 4898.0, 4898.0, 4898.0, 4876.0, 4870.0, 4840.0, 4834.0, 4808.0, 4804.0, 4812.0, 4842.0, 4868.0, 4776.0, 4840.0, 4806.0, 4838.0, 4866.0, 4870.0, 4872.0, 4898.0, 4868.0, 4834.0, 4686.0, 4710.0, 4830.0, 4798.0],
