{
  "AcquisitionMatrixPE": 104,
  "AcquisitionNumber": 1,
  "AcquisitionTime": "18:22:2.990000",
  "BandwidthPerPixelPhaseEncode": 17.17,
  "BaseResolution": 104,
  "BodyPartExamined": "BRAIN",
  "CoilCombinationMethod": "Sum of Squares",
  "ConsistencyInfo": "N4_VE11C_LATEST_20160120",
  "ConversionSoftware": "dcm2niix",
  "ConversionSoftwareVersion": "v1.0.20220505",
  "DerivedVendorReportedEchoSpacing": 0.000560011,
  "DeviceSerialNumber": "167006",
  "DwellTime": 2.1e-06,
  "EchoTime": 0.037,
  "EchoTime1": 0.037,
  "EchoTime2": 0.001,
  "EchoTrainLength": 104,
  "EffectiveEchoSpacing": 0.000560011,
  "FlipAngle": 52,
  "HeudiconvVersion": "0.5.3.post811+g6206e14",
  "ImageComments": "Unaliased MB4/PE3/LB",
  "ImageOrientationPatientDICOM": [0.999821, 0.00162199, 0.0188542, 0.00401353, 0.955479, -0.295032],
  "ImageOrientationText": "Tra>Cor(-17.2)>Sag(1.1)",
  "ImageType": [
    "ORIGINAL",
    "PRIMARY",
    "P",
    "MB",
    "ND",
    "MOSAIC",
    "PHASE"
],
  "ImagingFrequency": 123.26,
  "InPlanePhaseEncodingDirectionDICOM": "COL",
  "InstitutionAddress": "Chemin Queen-Mary 4565,Montreal,District,CA,H3W 1W5",
  "InstitutionName": "IUGM",
  "InstitutionalDepartmentName": "Department",
  "MRAcquisitionType": "2D",
  "MagneticFieldStrength": 3,
  "Manufacturer": "Siemens",
  "ManufacturersModelName": "Prisma_fit",
  "MatrixCoilMode": "SENSE",
  "Modality": "MR",
  "MultibandAccelerationFactor": 4,
  "PartialFourier": 1,
  "PatientPosition": "HFS",
  "PercentPhaseFOV": 100,
  "PercentSampling": 100,
  "PhaseEncodingDirection": "j",
  "PhaseEncodingSteps": 104,
  "PhaseResolution": 1,
  "PixelBandwidth": 2290,
  "ProcedureStepDescription": "games^mario3",
  "ProtocolName": "func_task-mario3_run-02",
  "PulseSequenceDetails": "%CustomerSeq%\\cmrr_mbep2d_bold",
  "ReceiveCoilActiveElements": "HC1-7;NC1,2",
  "ReceiveCoilName": "HeadNeck_64",
  "ReconMatrixPE": 104,
  "RepetitionTime": 1.49,
  "SAR": 0.054717,
  "ScanOptions": "FS",
  "ScanningSequence": "EP",
  "SequenceName": "epfid2d1_104",
  "SequenceVariant": "SK\\SS",
  "SeriesDescription": "func_task-mario3_run-02",
  "SeriesNumber": 14,
  "ShimSetting": [626, -7222, -8756, 680, 80, 14, 39, -6],
  "SliceThickness": 2,
  "SliceTiming": [0, 0.7825, 0.0975, 0.8825, 0.195, 0.98, 0.2925, 1.0775, 0.3925, 1.175, 0.49, 1.2725, 0.5875, 1.3725, 0.685, 0, 0.7825, 0.0975, 0.8825, 0.195, 0.98, 0.2925, 1.0775, 0.3925, 1.175, 0.49, 1.2725, 0.5875, 1.3725, 0.685, 0, 0.7825, 0.0975, 0.8825, 0.195, 0.98, 0.2925, 1.0775, 0.3925, 1.175, 0.49, 1.2725, 0.5875, 1.3725, 0.685, 0, 0.7825, 0.0975, 0.8825, 0.195, 0.98, 0.2925, 1.0775, 0.3925, 1.175, 0.49, 1.2725, 0.5875, 1.3725, 0.685],
  "SoftwareVersions": "syngo MR E11",
  "SpacingBetweenSlices": 2,
  "StationName": "MRC35049",
  "TaskName": "mario3",
  "TotalReadoutTime": 0.0576811,
  "TxRefAmp": 232.555,
  "WipMemBlock": "5e2cce85-f616-4b8d-a217-1af57f211571||Sequence: R017 ve11c/master r/75a17815+; Jun 28 2022 16:32:11 by eja",
  "dcmmeta_affine": [
    [-1.9996418952941895, 0.00802706554532051, 0.03698667511343956, 107.6900405883789],
    [-0.0032439823262393475, 1.910957932472229, -0.5901094675064087, -71.35431671142578],
    [0.03770841658115387, 0.5900638103485107, 1.9106026887893677, -53.416873931884766],
    [0.0, 0.0, 0.0, 1.0]
],
  "dcmmeta_reorient_transform": [
    [0.0, -1.0, 0.0, 103.0],
    [1.0, 0.0, 0.0, 0.0],
    [0.0, 0.0, 1.0, 0.0],
    [0.0, 0.0, 0.0, 1.0]
],
  "dcmmeta_shape": [104, 104, 60, 318],
  "dcmmeta_slice_dim": 2,
  "dcmmeta_version": 0.6,
  "global": {
    "const": {
      "AcquisitionMatrix": [104, 0, 0, 104],
      "AngioFlag": "N",
      "BitsAllocated": 16,
      "BitsStored": 16,
      "BodyPartExamined": "BRAIN",
      "Columns": 832,
      "EchoNumbers": 1,
      "EchoTime": 37.0,
      "EchoTrainLength": 104,
      "FlipAngle": 52.0,
      "HighBit": 15,
      "ImageOrientationPatient": [0.99982092796353, 0.00162199110868, 0.01885420777936, 0.00401353292493, 0.95547897596748, -0.295031893255],
      "ImagePositionPatient": [-839.30831392822, -822.24385665815, 208.41705279104],
      "ImageType": [
        "ORIGINAL",
        "PRIMARY",
        "P",
        "MB",
        "ND",
        "MOSAIC"
],
      "ImagedNucleus": "1H",
      "ImagingFrequency": 123.260447,
      "InPlanePhaseEncodingDirection": "COL",
      "LargestImagePixelValue": 4095,
      "MRAcquisitionType": "2D",
      "MagneticFieldStrength": 3.0,
      "Manufacturer": "SIEMENS",
      "ManufacturerModelName": "Prisma_fit",
      "Modality": "MR",
      "NumberOfAverages": 1.0,
      "NumberOfPhaseEncodingSteps": 104,
      "PercentPhaseFieldOfView": 100.0,
      "PercentSampling": 100.0,
      "PerformedProcedureStepStartTime": "180223.696000",
      "PhotometricInterpretation": "MONOCHROME2",
      "PixelBandwidth": 2290.0,
      "PixelRepresentation": 0,
      "PixelSpacing": [2.0, 2.0],
      "ProtocolName": "func_task-mario3_run-02",
      "RepetitionTime": 1490.0,
      "RescaleIntercept": -4096.0,
      "RescaleSlope": 2.0,
      "RescaleType": "US",
      "Rows": 832,
      "SAR": 0.05471702199828,
      "SamplesPerPixel": 1,
      "ScanOptions": "FS",
      "ScanningSequence": "EP",
      "SequenceName": "epfid2d1_104",
      "SequenceVariant": [
        "SK",
        "SS"
],
      "SeriesDescription": "func_task-mario3_run-02",
      "SeriesNumber": 14,
      "SeriesTime": "182330.735000",
      "SliceLocation": -27.984233939306,
      "SliceThickness": 2.0,
      "SmallestImagePixelValue": 0,
      "SoftwareVersions": "syngo MR E11",
      "SpacingBetweenSlices": 1.9999999632102,
      "SpecificCharacterSet": "ISO_IR 100",
      "StudyID": "1",
      "StudyTime": "180223.618000",
      "TransmitCoilName": "Body",
      "VariableFlipAngleFlag": "N",
      "WindowCenterWidthExplanation": "Algo1",
      "dBdt": 0.0},
    "slices": {}
  },
  "time": {
    "samples": {
      "AcquisitionNumber": [1, 2, 3, 4, 5, 6, 7, 8, 9, 10, 11, 12, 13, 14, 15, 16, 17, 18, 19, 20, 21, 22, 23, 24, 25, 26, 27, 28, 29, 30, 31, 32, 33, 34, 35, 36, 37, 38, 39, 40, 41, 42, 43, 44, 45, 46, 47, 48, 49, 50, 51, 52, 53, 54, 55, 56, 57, 58, 59, 60, 61, 62, 63, 64, 65, 66, 67, 68, 69, 70, 71, 72, 73, 74, 75, 76, 77, 78, 79, 80, 81, 82, 83, 84, 85, 86, 87, 88, 89, 90, 91, 92, 93, 94, 95, 96, 97, 98, 99, 100, 101, 102, 103, 104, 105, 106, 107, 108, 109, 110, 111, 112, 113, 114, 115, 116, 117, 118, 119, 120, 121, 122, 123, 124, 125, 126, 127, 128, 129, 130, 131, 132, 133, 134, 135, 136, 137, 138, 139, 140, 141, 142, 143, 144, 145, 146, 147, 148, 149, 150, 151, 152, 153, 154, 155, 156, 157, 158, 159, 160, 161, 162, 163, 164, 165, 166, 167, 168, 169, 170, 171, 172, 173, 174, 175, 176, 177, 178, 179, 180, 181, 182, 183, 184, 185, 186, 187, 188, 189, 190, 191, 192, 193, 194, 195, 196, 197, 198, 199, 200, 201, 202, 203, 204, 205, 206, 207, 208, 209, 210, 211, 212, 213, 214, 215, 216, 217, 218, 219, 220, 221, 222, 223, 224, 225, 226, 227, 228, 229, 230, 231, 232, 233, 234, 235, 236, 237, 238, 239, 240, 241, 242, 243, 244, 245, 246, 247, 248, 249, 250, 251, 252, 253, 254, 255, 256, 257, 258, 259, 260, 261, 262, 263, 264, 265, 266, 267, 268, 269, 270, 271, 272, 273, 274, 275, 276, 277, 278, 279, 280, 281, 282, 283, 284, 285, 286, 287, 288, 289, 290, 291, 292, 293, 294, 295, 296, 297, 298, 299, 300, 301, 302, 303, 304, 305, 306, 307, 308, 309, 310, 311, 312, 313, 314, 315, 316, 317, 318],
      "AcquisitionTime": ["182202.990000", "182204.480000", "182205.970000", "182207.460000", "182208.950000", "182210.440000", "182211.930000", "182213.420000", "182214.910000", "182216.400000", "182217.890000", "182219.380000", "182220.870000", "182222.360000", "182223.850000", "182225.340000", "182226.830000", "182228.320000", "182229.810000", "182231.300000", "182232.790000", "182234.280000", "182235.770000", "182237.260000", "182238.750000", "182240.240000", "182241.730000", "182243.220000", "182244.710000", "182246.200000", "182247.690000", "182249.180000", "182250.670000", "182252.160000", "182253.650000", "182255.140000", "182256.630000", "182258.120000", "182259.610000", "182301.100000", "182302.590000", "182304.080000", "182305.570000", "182307.060000", "182308.550000", "182310.040000", "182311.530000", "182313.020000", "182314.510000", "182316.000000", "182317.490000", "182318.980000", "182320.470000", "182321.960000", "182323.450000", "182324.940000", "182326.430000", "182327.920000", "182329.410000", "182330.900000", "182332.390000", "182333.880000", "182335.370000", "182336.860000", "182338.350000", "182339.840000", "182341.330000", "182342.820000", "182344.310000", "182345.800000", "182347.290000", "182348.780000", "182350.270000", "182351.760000", "182353.250000", "182354.740000", "182356.230000", "182357.720000", "182359.210000", "182400.700000", "182402.190000", "182403.680000", "182405.170000", "182406.660000", "182408.150000", "182409.640000", "182411.130000", "182412.620000", "182414.110000", "182415.600000", "182417.090000", "182418.580000", "182420.070000", "182421.560000", "182423.050000", "182424.540000", "182426.030000", "182427.520000", "182429.010000", "182430.500000", "182431.990000", "182433.480000", "182434.970000", "182436.460000", "182437.950000", "182439.440000", "182440.930000", "182442.420000", "182443.910000", "182445.400000", "182446.890000", "182448.380000", "182449.870000", "182451.360000", "182452.850000", "182454.340000", "182455.830000", "182457.320000", "182458.810000", "182500.300000", "182501.790000", "182503.280000", "182504.770000", "182506.260000", "182507.750000", "182509.240000", "182510.730000", "182512.220000", "182513.710000", "182515.200000", "182516.690000", "182518.180000", "182519.670000", "182521.160000", "182522.650000", "182524.140000", "182525.630000", "182527.120000", "182528.610000", "182530.100000", "182531.590000", "182533.080000", "182534.570000", "182536.060000", "182537.550000", "182539.040000", "182540.530000", "182542.020000", "182543.510000", "182545.000000", "182546.490000", "182547.980000", "182549.470000", "182550.960000", "182552.450000", "182553.940000", "182555.430000", "182556.920000", "182558.410000", "182559.900000", "182601.390000", "182602.880000", "182604.370000", "182605.860000", "182607.350000", "182608.840000", "182610.330000", "182611.820000", "182613.310000", "182614.800000", "182616.290000", "182617.780000", "182619.270000", "182620.760000", "182622.250000", "182623.740000", "182625.230000", "182626.720000", "182628.210000", "182629.700000", "182631.190000", "182632.680000", "182634.170000", "182635.660000", "182637.150000", "182638.640000", "182640.130000", "182641.620000", "182643.110000", "182644.600000", "182646.090000", "182647.580000", "182649.070000", "182650.560000", "182652.050000", "182653.540000", "182655.030000", "182656.520000", "182658.010000", "182659.500000", "182700.990000", "182702.480000", "182703.970000", "182705.460000", "182706.950000", "182708.440000", "182709.930000", "182711.420000", "182712.910000", "182714.400000", "182715.890000", "182717.380000", "182718.870000", "182720.360000", "182721.850000", "182723.340000", "182724.830000", "182726.320000", "182727.810000", "182729.300000", "182730.790000", "182732.280000", "182733.770000", "182735.260000", "182736.750000", "182738.240000", "182739.730000", "182741.220000", "182742.710000", "182744.200000", "182745.690000", "182747.180000", "182748.670000", "182750.160000", "182751.650000", "182753.140000", "182754.630000", "182756.120000", "182757.610000", "182759.100000", "182800.590000", "182802.080000", "182803.570000", "182805.060000", "182806.550000", "182808.040000", "182809.530000", "182811.020000", "182812.510000", "182814.000000", "182815.490000", "182816.980000", "182818.470000", "182819.960000", "182821.450000", "182822.940000", "182824.430000", "182825.920000", "182827.410000", "182828.900000", "182830.390000", "182831.880000", "182833.370000", "182834.860000", "182836.350000", "182837.840000", "182839.330000", "182840.820000", "182842.310000", "182843.800000", "182845.290000", "182846.780000", "182848.270000", "182849.760000", "182851.250000", "182852.740000", "182854.230000", "182855.720000", "182857.210000", "182858.700000", "182900.190000", "182901.680000", "182903.170000", "182904.660000", "182906.150000", "182907.640000", "182909.130000", "182910.620000", "182912.110000", "182913.600000", "182915.090000", "182916.580000", "182918.070000", "182919.560000", "182921.050000", "182922.540000", "182924.030000", "182925.520000", "182927.010000", "182928.500000", "182929.990000", "182931.480000", "182932.970000", "182934.460000", "182935.950000", "182937.440000", "182938.930000", "182940.420000", "182941.910000", "182943.400000", "182944.890000", "182946.380000", "182947.870000", "182949.360000", "182950.850000", "182952.340000", "182953.830000", "182955.320000"],
      "ContentTime": ["182330.737000", "182330.740000", "182330.743000", "182330.745000", "182330.748000", "182330.750000", "182330.753000", "182330.755000", "182330.758000", "182330.760000", "182330.763000", "182330.765000", "182330.771000", "182330.774000", "182330.776000", "182330.779000", "182330.781000", "182330.784000", "182330.786000", "182330.789000", "182330.791000", "182330.794000", "182330.796000", "182330.799000", "182330.801000", "182330.804000", "182330.806000", "182330.809000", "182330.811000", "182330.814000", "182330.816000", "182330.819000", "182330.822000", "182330.824000", "182330.827000", "182330.829000", "182330.831000", "182330.834000", "182330.836000", "182350.642000", "182350.645000", "182350.648000", "182350.650000", "182350.653000", "182350.660000", "182350.662000", "182350.665000", "182350.668000", "182350.670000", "182350.673000", "182350.675000", "182350.684000", "182350.686000", "182350.689000", "182350.691000", "182350.694000", "182350.697000", "182350.699000", "182350.701000", "182410.608000", "182410.611000", "182410.614000", "182410.616000", "182410.619000", "182410.621000", "182410.624000", "182410.626000", "182410.629000", "182410.631000", "182410.634000", "182410.636000", "182410.639000", "182410.641000", "182410.644000", "182410.646000", "182410.649000", "182410.652000", "182410.654000", "182410.656000", "182450.691000", "182450.694000", "182450.697000", "182450.699000", "182450.702000", "182450.704000", "182450.707000", "182450.709000", "182450.712000", "182450.714000", "182450.717000", "182450.719000", "182450.722000", "182450.724000", "182450.727000", "182450.729000", "182450.732000", "182450.735000", "182450.737000", "182450.740000", "182450.742000", "182450.745000", "182450.747000", "182450.750000", "182450.752000", "182450.755000", "182450.757000", "182450.760000", "182450.768000", "182450.771000", "182450.773000", "182450.776000", "182530.641000", "182530.644000", "182530.646000", "182530.649000", "182530.651000", "182530.654000", "182530.656000", "182530.659000", "182530.661000", "182530.664000", "182530.666000", "182530.669000", "182530.672000", "182530.674000", "182530.677000", "182530.679000", "182530.682000", "182530.684000", "182530.687000", "182530.689000", "182530.698000", "182530.700000", "182530.703000", "182530.705000", "182530.708000", "182530.710000", "182530.713000", "182610.636000", "182610.639000", "182610.641000", "182610.644000", "182610.646000", "182610.649000", "182610.651000", "182610.654000", "182610.657000", "182610.659000", "182610.662000", "182610.664000", "182610.667000", "182610.669000", "182610.672000", "182610.674000", "182610.677000", "182610.679000", "182610.682000", "182610.684000", "182610.687000", "182610.690000", "182610.693000", "182610.696000", "182610.698000", "182610.701000", "182610.703000", "182630.589000", "182630.592000", "182630.595000", "182630.597000", "182630.600000", "182630.602000", "182630.605000", "182630.608000", "182630.610000", "182630.613000", "182630.615000", "182630.618000", "182630.620000", "182630.623000", "182710.637000", "182710.640000", "182710.643000", "182710.645000", "182710.648000", "182710.650000", "182710.653000", "182710.655000", "182710.658000", "182710.660000", "182710.663000", "182710.665000", "182710.668000", "182710.670000", "182710.673000", "182710.676000", "182710.678000", "182710.681000", "182710.683000", "182710.686000", "182710.688000", "182710.691000", "182710.693000", "182710.696000", "182710.698000", "182710.701000", "182750.656000", "182750.659000", "182750.662000", "182750.665000", "182750.667000", "182750.670000", "182750.672000", "182750.675000", "182750.677000", "182750.680000", "182750.682000", "182750.685000", "182750.687000", "182750.690000", "182750.693000", "182750.695000", "182750.698000", "182750.700000", "182750.703000", "182750.706000", "182750.708000", "182750.710000", "182750.713000", "182750.716000", "182750.718000", "182750.721000", "182750.723000", "182830.648000", "182830.651000", "182830.653000", "182830.656000", "182830.658000", "182830.661000", "182830.663000", "182830.666000", "182830.669000", "182830.671000", "182830.674000", "182830.676000", "182830.679000", "182830.681000", "182830.684000", "182830.686000", "182830.689000", "182830.691000", "182830.694000", "182830.696000", "182830.699000", "182830.701000", "182830.704000", "182830.710000", "182830.712000", "182830.715000", "182830.717000", "182910.639000", "182910.641000", "182910.644000", "182910.647000", "182910.649000", "182910.652000", "182910.654000", "182910.657000", "182910.659000", "182910.662000", "182910.664000", "182910.667000", "182910.669000", "182910.672000", "182910.674000", "182910.677000", "182910.679000", "182910.682000", "182910.685000", "182910.687000", "182910.690000", "182910.692000", "182910.695000", "182910.697000", "182910.700000", "182910.702000", "182910.705000", "182950.647000", "182950.649000", "182950.652000", "182950.654000", "182950.657000", "182950.659000", "182950.662000", "182950.664000", "182950.667000", "182950.669000", "182950.672000", "182950.674000", "182950.677000", "182950.679000", "182950.682000", "182950.685000", "182950.687000", "182950.690000", "182950.692000", "182950.695000", "182950.697000", "182950.700000", "182950.702000", "182950.705000", "182950.707000", "182950.710000", "182950.712000", "182957.989000", "182957.991000", "182957.994000", "182957.996000", "182957.999000"],
      "InstanceCreationTime": ["182330.737000", "182330.740000", "182330.743000", "182330.745000", "182330.748000", "182330.750000", "182330.753000", "182330.755000", "182330.758000", "182330.760000", "182330.763000", "182330.765000", "182330.771000", "182330.774000", "182330.776000", "182330.779000", "182330.781000", "182330.784000", "182330.786000", "182330.789000", "182330.791000", "182330.794000", "182330.796000", "182330.799000", "182330.801000", "182330.804000", "182330.806000", "182330.809000", "182330.811000", "182330.814000", "182330.816000", "182330.819000", "182330.822000", "182330.824000", "182330.827000", "182330.829000", "182330.831000", "182330.834000", "182330.836000", "182350.642000", "182350.645000", "182350.648000", "182350.650000", "182350.653000", "182350.660000", "182350.662000", "182350.665000", "182350.668000", "182350.670000", "182350.673000", "182350.675000", "182350.684000", "182350.686000", "182350.689000", "182350.691000", "182350.694000", "182350.697000", "182350.699000", "182350.701000", "182410.608000", "182410.611000", "182410.614000", "182410.616000", "182410.619000", "182410.621000", "182410.624000", "182410.626000", "182410.629000", "182410.631000", "182410.634000", "182410.636000", "182410.639000", "182410.641000", "182410.644000", "182410.646000", "182410.649000", "182410.652000", "182410.654000", "182410.656000", "182450.691000", "182450.694000", "182450.697000", "182450.699000", "182450.702000", "182450.704000", "182450.707000", "182450.709000", "182450.712000", "182450.714000", "182450.717000", "182450.719000", "182450.722000", "182450.724000", "182450.727000", "182450.729000", "182450.732000", "182450.735000", "182450.737000", "182450.740000", "182450.742000", "182450.745000", "182450.747000", "182450.750000", "182450.752000", "182450.755000", "182450.757000", "182450.760000", "182450.768000", "182450.771000", "182450.773000", "182450.776000", "182530.641000", "182530.644000", "182530.646000", "182530.649000", "182530.651000", "182530.654000", "182530.656000", "182530.659000", "182530.661000", "182530.664000", "182530.666000", "182530.669000", "182530.672000", "182530.674000", "182530.677000", "182530.679000", "182530.682000", "182530.684000", "182530.687000", "182530.689000", "182530.698000", "182530.700000", "182530.703000", "182530.705000", "182530.708000", "182530.710000", "182530.713000", "182610.636000", "182610.639000", "182610.641000", "182610.644000", "182610.646000", "182610.649000", "182610.651000", "182610.654000", "182610.657000", "182610.659000", "182610.662000", "182610.664000", "182610.667000", "182610.669000", "182610.672000", "182610.674000", "182610.677000", "182610.679000", "182610.682000", "182610.684000", "182610.687000", "182610.690000", "182610.693000", "182610.696000", "182610.698000", "182610.701000", "182610.703000", "182630.589000", "182630.592000", "182630.595000", "182630.597000", "182630.600000", "182630.602000", "182630.605000", "182630.608000", "182630.610000", "182630.613000", "182630.615000", "182630.618000", "182630.620000", "182630.623000", "182710.637000", "182710.640000", "182710.643000", "182710.645000", "182710.648000", "182710.650000", "182710.653000", "182710.655000", "182710.658000", "182710.660000", "182710.663000", "182710.665000", "182710.668000", "182710.670000", "182710.673000", "182710.676000", "182710.678000", "182710.681000", "182710.683000", "182710.686000", "182710.688000", "182710.691000", "182710.693000", "182710.696000", "182710.698000", "182710.701000", "182750.656000", "182750.659000", "182750.662000", "182750.665000", "182750.667000", "182750.670000", "182750.672000", "182750.675000", "182750.677000", "182750.680000", "182750.682000", "182750.685000", "182750.687000", "182750.690000", "182750.693000", "182750.695000", "182750.698000", "182750.700000", "182750.703000", "182750.706000", "182750.708000", "182750.710000", "182750.713000", "182750.716000", "182750.718000", "182750.721000", "182750.723000", "182830.648000", "182830.651000", "182830.653000", "182830.656000", "182830.658000", "182830.661000", "182830.663000", "182830.666000", "182830.669000", "182830.671000", "182830.674000", "182830.676000", "182830.679000", "182830.681000", "182830.684000", "182830.686000", "182830.689000", "182830.691000", "182830.694000", "182830.696000", "182830.699000", "182830.701000", "182830.704000", "182830.710000", "182830.712000", "182830.715000", "182830.717000", "182910.639000", "182910.641000", "182910.644000", "182910.647000", "182910.649000", "182910.652000", "182910.654000", "182910.657000", "182910.659000", "182910.662000", "182910.664000", "182910.667000", "182910.669000", "182910.672000", "182910.674000", "182910.677000", "182910.679000", "182910.682000", "182910.685000", "182910.687000", "182910.690000", "182910.692000", "182910.695000", "182910.697000", "182910.700000", "182910.702000", "182910.705000", "182950.647000", "182950.649000", "182950.652000", "182950.654000", "182950.657000", "182950.659000", "182950.662000", "182950.664000", "182950.667000", "182950.669000", "182950.672000", "182950.674000", "182950.677000", "182950.679000", "182950.682000", "182950.685000", "182950.687000", "182950.690000", "182950.692000", "182950.695000", "182950.697000", "182950.700000", "182950.702000", "182950.705000", "182950.707000", "182950.710000", "182950.712000", "182957.989000", "182957.991000", "182957.994000", "182957.996000", "182957.999000"],
      "InstanceNumber": [1, 2, 3, 4, 5, 6, 7, 8, 9, 10, 11, 12, 13, 14, 15, 16, 17, 18, 19, 20, 21, 22, 23, 24, 25, 26, 27, 28, 29, 30, 31, 32, 33, 34, 35, 36, 37, 38, 39, 40, 41, 42, 43, 44, 45, 46, 47, 48, 49, 50, 51, 52, 53, 54, 55, 56, 57, 58, 59, 60, 61, 62, 63, 64, 65, 66, 67, 68, 69, 70, 71, 72, 73, 74, 75, 76, 77, 78, 79, 80, 81, 82, 83, 84, 85, 86, 87, 88, 89, 90, 91, 92, 93, 94, 95, 96, 97, 98, 99, 100, 101, 102, 103, 104, 105, 106, 107, 108, 109, 110, 111, 112, 113, 114, 115, 116, 117, 118, 119, 120, 121, 122, 123, 124, 125, 126, 127, 128, 129, 130, 131, 132, 133, 134, 135, 136, 137, 138, 139, 140, 141, 142, 143, 144, 145, 146, 147, 148, 149, 150, 151, 152, 153, 154, 155, 156, 157, 158, 159, 160, 161, 162, 163, 164, 165, 166, 167, 168, 169, 170, 171, 172, 173, 174, 175, 176, 177, 178, 179, 180, 181, 182, 183, 184, 185, 186, 187, 188, 189, 190, 191, 192, 193, 194, 195, 196, 197, 198, 199, 200, 201, 202, 203, 204, 205, 206, 207, 208, 209, 210, 211, 212, 213, 214, 215, 216, 217, 218, 219, 220, 221, 222, 223, 224, 225, 226, 227, 228, 229, 230, 231, 232, 233, 234, 235, 236, 237, 238, 239, 240, 241, 242, 243, 244, 245, 246, 247, 248, 249, 250, 251, 252, 253, 254, 255, 256, 257, 258, 259, 260, 261, 262, 263, 264, 265, 266, 267, 268, 269, 270, 271, 272, 273, 274, 275, 276, 277, 278, 279, 280, 281, 282, 283, 284, 285, 286, 287, 288, 289, 290, 291, 292, 293, 294, 295, 296, 297, 298, 299, 300, 301, 302, 303, 304, 305, 306, 307, 308, 309, 310, 311, 312, 313, 314, 315, 316, 317, 318],
      "WindowCenter": [4792.0, 4796.0, 4794.0, 4794.0, 4792.0, 4790.0, 4790.0, 4790.0, 4766.0, 4790.0, 4788.0, 4768.0, 4792.0, 4792.0, 4794.0, 4792.0, 4770.0, 4792.0, 4788.0, 4794.0, 4796.0, 4774.0, 4770.0, 4790.0, 4764.0, 4768.0, 4792.0, 4794.0, 4792.0, 4792.0, 4768.0, 4792.0, 4794.0, 4790.0, 4764.0, 4794.0, 4792.0, 4794.0, 4796.0, 4790.0, 4794.0, 4792.0, 4794.0, 4792.0, 4792.0, 4768.0, 4790.0, 4794.0, 4764.0, 4766.0, 4792.0, 4790.0, 4790.0, 4792.0, 4794.0, 4796.0, 4792.0, 4792.0, 4790.0, 4794.0, 4794.0, 4790.0, 4790.0, 4792.0, 4792.0, 4794.0, 4790.0, 4794.0, 4790.0, 4792.0, 4796.0, 4798.0, 4796.0, 4800.0, 4798.0, 4796.0, 4796.0, 4794.0, 4796.0, 4792.0, 4794.0, 4792.0, 4788.0, 4790.0, 4790.0, 4768.0, 4794.0, 4796.0, 4794.0, 4796.0, 4796.0, 4792.0, 4788.0, 4790.0, 4788.0, 4786.0, 4766.0, 4764.0, 4792.0, 4792.0, 4796.0, 4794.0, 4796.0, 4790.0, 4788.0, 4762.0, 4784.0, 4792.0, 4792.0, 4794.0, 4792.0, 4794.0, 4790.0, 4790.0, 4794.0, 4790.0, 4794.0, 4800.0, 4802.0, 4794.0, 4788.0, 4782.0, 4786.0, 4786.0, 4794.0, 4792.0, 4794.0, 4790.0, 4790.0, 4792.0, 4790.0, 4790.0, 4792.0, 4790.0, 4790.0, 4790.0, 4790.0, 4794.0, 4794.0, 4794.0, 4792.0, 4790.0, 4792.0, 4788.0, 4788.0, 4792.0, 4794.0, 4792.0, 4792.0, 4792.0, 4796.0, 4786.0, 4766.0, 4788.0, 4794.0, 4800.0, 4794.0, 4800.0, 4798.0, 4792.0, 4794.0, 4792.0, 4766.0, 4782.0, 4786.0, 4766.0, 4796.0, 4792.0, 4788.0, 4792.0, 4792.0, 4792.0, 4788.0, 4766.0, 4792.0, 4788.0, 4788.0, 4792.0, 4794.0, 4794.0, 4788.0, 4790.0, 4788.0, 4790.0, 4794.0, 4790.0, 4790.0, 4794.0, 4792.0, 4794.0, 4790.0, 4788.0, 4790.0, 4788.0, 4790.0, 4766.0, 4796.0, 4798.0, 4790.0, 4790.0, 4788.0, 4788.0, 4790.0, 4794.0, 4796.0, 4794.0, 4796.0, 4790.0, 4790.0, 4792.0, 4790.0, 4788.0, 4788.0, 4792.0, 4790.0, 4794.0, 4792.0, 4792.0, 4790.0, 4792.0, 4792.0, 4788.0, 4792.0, 4772.0, 4794.0, 4790.0, 4792.0, 4766.0, 4792.0, 4764.0, 4786.0, 4788.0, 4790.0, 4790.0, 4794.0, 4768.0, 4768.0, 4772.0, 4798.0, 4790.0, 4788.0, 4762.0, 4762.0, 4768.0, 4790.0, 4790.0, 4792.0, 4792.0, 4790.0, 4790.0, 4790.0, 4764.0, 4788.0, 4792.0, 4792.0, 4788.0, 4794.0, 4792.0, 4768.0, 4762.0, 4786.0, 4760.0, 4766.0, 4760.0, 4768.0, 4792.0, 4786.0, 4786.0, 4790.0, 4790.0, 4794.0, 4794.0, 4792.0, 4798.0, 4792.0, 4798.0, 4768.0, 4790.0, 4788.0, 4790.0, 4790.0, 4790.0, 4770.0, 4790.0, 4792.0, 4790.0, 4790.0, 4768.0, 4790.0, 4794.0, 4766.0, 4792.0, 4768.0, 4792.0, 4790.0, 4790.0, 4792.0, 4766.0, 4788.0, 4768.0, 4764.0, 4792.0, 4786.0, 4788.0, 4792.0, 4796.0, 4796.0, 4794.0, 4790.0, 4790.0, 4792.0, 4792.0, 4798.0, 4792.0, 4792.0, 4788.0, 4794.0, 4790.0],
