{
  "AcquisitionMatrixPE": 104,
  "AcquisitionNumber": 1,
  "AcquisitionTime": "18:43:12.992500",
  "BandwidthPerPixelPhaseEncode": 17.17,
  "BaseResolution": 104,
  "BodyPartExamined": "BRAIN",
  "CoilCombinationMethod": "Sum of Squares",
  "ConsistencyInfo": "N4_VE11C_LATEST_20160120",
  "ConversionSoftware": "dcm2niix",
  "ConversionSoftwareVersion": "v1.0.20220505",
  "DerivedVendorReportedEchoSpacing": 0.000560011,
  "DeviceSerialNumber": "167006",
  "DwellTime": 2.1e-06,
  "EchoTime": 0.037,
  "EchoTime1": 0.037,
  "EchoTime2": 0.001,
  "EchoTrainLength": 104,
  "EffectiveEchoSpacing": 0.000560011,
  "FlipAngle": 52,
  "HeudiconvVersion": "0.5.3.post811+g6206e14",
  "ImageComments": "Unaliased MB4/PE3/LB",
  "ImageOrientationPatientDICOM": [0.999821, 0.00162199, 0.0188542, 0.00401353, 0.955479, -0.295032],
  "ImageOrientationText": "Tra>Cor(-17.2)>Sag(1.1)",
  "ImageType": [
    "ORIGINAL",
    "PRIMARY",
    "P",
    "MB",
    "ND",
    "MOSAIC",
    "PHASE"
],
  "ImagingFrequency": 123.26,
  "InPlanePhaseEncodingDirectionDICOM": "COL",
  "InstitutionAddress": "Chemin Queen-Mary 4565,Montreal,District,CA,H3W 1W5",
  "InstitutionName": "IUGM",
  "InstitutionalDepartmentName": "Department",
  "MRAcquisitionType": "2D",
  "MagneticFieldStrength": 3,
  "Manufacturer": "Siemens",
  "ManufacturersModelName": "Prisma_fit",
  "MatrixCoilMode": "SENSE",
  "Modality": "MR",
  "MultibandAccelerationFactor": 4,
  "PartialFourier": 1,
  "PatientPosition": "HFS",
  "PercentPhaseFOV": 100,
  "PercentSampling": 100,
  "PhaseEncodingDirection": "j",
  "PhaseEncodingSteps": 104,
  "PhaseResolution": 1,
  "PixelBandwidth": 2290,
  "ProcedureStepDescription": "games^mario3",
  "ProtocolName": "func_task-mario3_run-04",
  "PulseSequenceDetails": "%CustomerSeq%\\cmrr_mbep2d_bold",
  "ReceiveCoilActiveElements": "HC1-7;NC1,2",
  "ReceiveCoilName": "HeadNeck_64",
  "ReconMatrixPE": 104,
  "RepetitionTime": 1.49,
  "SAR": 0.054717,
  "ScanOptions": "FS",
  "ScanningSequence": "EP",
  "SequenceName": "epfid2d1_104",
  "SequenceVariant": "SK\\SS",
  "SeriesDescription": "func_task-mario3_run-04",
  "SeriesNumber": 23,
  "ShimSetting": [626, -7222, -8756, 680, 80, 14, 39, -6],
  "SliceThickness": 2,
  "SliceTiming": [0, 0.785, 0.0975, 0.8825, 0.1975, 0.98, 0.295, 1.0775, 0.3925, 1.1775, 0.49, 1.275, 0.5875, 1.3725, 0.6875, 0, 0.785, 0.0975, 0.8825, 0.1975, 0.98, 0.295, 1.0775, 0.3925, 1.1775, 0.49, 1.275, 0.5875, 1.3725, 0.6875, 0, 0.785, 0.0975, 0.8825, 0.1975, 0.98, 0.295, 1.0775, 0.3925, 1.1775, 0.49, 1.275, 0.5875, 1.3725, 0.6875, 0, 0.785, 0.0975, 0.8825, 0.1975, 0.98, 0.295, 1.0775, 0.3925, 1.1775, 0.49, 1.275, 0.5875, 1.3725, 0.6875],
  "SoftwareVersions": "syngo MR E11",
  "SpacingBetweenSlices": 2,
  "StationName": "MRC35049",
  "TaskName": "mario3",
  "TotalReadoutTime": 0.0576811,
  "TxRefAmp": 232.555,
  "WipMemBlock": "ebfe47a6-e012-477b-b92e-5ed3ba52cdc8||Sequence: R017 ve11c/master r/75a17815+; Jun 28 2022 16:32:11 by eja",
  "dcmmeta_affine": [
    [-1.9996418952941895, 0.00802706554532051, 0.03698667511343956, 107.6900405883789],
    [-0.0032439823262393475, 1.910957932472229, -0.5901094675064087, -71.35431671142578],
    [0.03770841658115387, 0.5900638103485107, 1.9106026887893677, -53.416873931884766],
    [0.0, 0.0, 0.0, 1.0]
],
  "dcmmeta_reorient_transform": [
    [0.0, -1.0, 0.0, 103.0],
    [1.0, 0.0, 0.0, 0.0],
    [0.0, 0.0, 1.0, 0.0],
    [0.0, 0.0, 0.0, 1.0]
],
  "dcmmeta_shape": [104, 104, 60, 340],
  "dcmmeta_slice_dim": 2,
  "dcmmeta_version": 0.6,
  "global": {
    "const": {
      "AcquisitionMatrix": [104, 0, 0, 104],
      "AngioFlag": "N",
      "BitsAllocated": 16,
      "BitsStored": 16,
      "BodyPartExamined": "BRAIN",
      "Columns": 832,
      "EchoNumbers": 1,
      "EchoTime": 37.0,
      "EchoTrainLength": 104,
      "FlipAngle": 52.0,
      "HighBit": 15,
      "ImageOrientationPatient": [0.99982092796353, 0.00162199110868, 0.01885420777936, 0.00401353292493, 0.95547897596748, -0.295031893255],
      "ImagePositionPatient": [-839.30831392822, -822.24385665815, 208.41705279104],
      "ImageType": [
        "ORIGINAL",
        "PRIMARY",
        "P",
        "MB",
        "ND",
        "MOSAIC"
],
      "ImagedNucleus": "1H",
      "ImagingFrequency": 123.260451,
      "InPlanePhaseEncodingDirection": "COL",
      "LargestImagePixelValue": 4095,
      "MRAcquisitionType": "2D",
      "MagneticFieldStrength": 3.0,
      "Manufacturer": "SIEMENS",
      "ManufacturerModelName": "Prisma_fit",
      "Modality": "MR",
      "NumberOfAverages": 1.0,
      "NumberOfPhaseEncodingSteps": 104,
      "PercentPhaseFieldOfView": 100.0,
      "PercentSampling": 100.0,
      "PerformedProcedureStepStartTime": "180223.696000",
      "PhotometricInterpretation": "MONOCHROME2",
      "PixelBandwidth": 2290.0,
      "PixelRepresentation": 0,
      "PixelSpacing": [2.0, 2.0],
      "ProtocolName": "func_task-mario3_run-04",
      "RepetitionTime": 1490.0,
      "RescaleIntercept": -4096.0,
      "RescaleSlope": 2.0,
      "RescaleType": "US",
      "Rows": 832,
      "SAR": 0.05471702199828,
      "SamplesPerPixel": 1,
      "ScanOptions": "FS",
      "ScanningSequence": "EP",
      "SequenceName": "epfid2d1_104",
      "SequenceVariant": [
        "SK",
        "SS"
],
      "SeriesDescription": "func_task-mario3_run-04",
      "SeriesNumber": 23,
      "SeriesTime": "184430.675000",
      "SliceLocation": -27.984233939306,
      "SliceThickness": 2.0,
      "SmallestImagePixelValue": 0,
      "SoftwareVersions": "syngo MR E11",
      "SpacingBetweenSlices": 1.9999999632102,
      "SpecificCharacterSet": "ISO_IR 100",
      "StudyID": "1",
      "StudyTime": "180223.618000",
      "TransmitCoilName": "Body",
      "VariableFlipAngleFlag": "N",
      "WindowCenterWidthExplanation": "Algo1",
      "dBdt": 0.0},
    "slices": {}
  },
  "time": {
    "samples": {
      "AcquisitionNumber": [1, 2, 3, 4, 5, 6, 7, 8, 9, 10, 11, 12, 13, 14, 15, 16, 17, 18, 19, 20, 21, 22, 23, 24, 25, 26, 27, 28, 29, 30, 31, 32, 33, 34, 35, 36, 37, 38, 39, 40, 41, 42, 43, 44, 45, 46, 47, 48, 49, 50, 51, 52, 53, 54, 55, 56, 57, 58, 59, 60, 61, 62, 63, 64, 65, 66, 67, 68, 69, 70, 71, 72, 73, 74, 75, 76, 77, 78, 79, 80, 81, 82, 83, 84, 85, 86, 87, 88, 89, 90, 91, 92, 93, 94, 95, 96, 97, 98, 99, 100, 101, 102, 103, 104, 105, 106, 107, 108, 109, 110, 111, 112, 113, 114, 115, 116, 117, 118, 119, 120, 121, 122, 123, 124, 125, 126, 127, 128, 129, 130, 131, 132, 133, 134, 135, 136, 137, 138, 139, 140, 141, 142, 143, 144, 145, 146, 147, 148, 149, 150, 151, 152, 153, 154, 155, 156, 157, 158, 159, 160, 161, 162, 163, 164, 165, 166, 167, 168, 169, 170, 171, 172, 173, 174, 175, 176, 177, 178, 179, 180, 181, 182, 183, 184, 185, 186, 187, 188, 189, 190, 191, 192, 193, 194, 195, 196, 197, 198, 199, 200, 201, 202, 203, 204, 205, 206, 207, 208, 209, 210, 211, 212, 213, 214, 215, 216, 217, 218, 219, 220, 221, 222, 223, 224, 225, 226, 227, 228, 229, 230, 231, 232, 233, 234, 235, 236, 237, 238, 239, 240, 241, 242, 243, 244, 245, 246, 247, 248, 249, 250, 251, 252, 253, 254, 255, 256, 257, 258, 259, 260, 261, 262, 263, 264, 265, 266, 267, 268, 269, 270, 271, 272, 273, 274, 275, 276, 277, 278, 279, 280, 281, 282, 283, 284, 285, 286, 287, 288, 289, 290, 291, 292, 293, 294, 295, 296, 297, 298, 299, 300, 301, 302, 303, 304, 305, 306, 307, 308, 309, 310, 311, 312, 313, 314, 315, 316, 317, 318, 319, 320, 321, 322, 323, 324, 325, 326, 327, 328, 329, 330, 331, 332, 333, 334, 335, 336, 337, 338, 339, 340],
      "AcquisitionTime": ["184312.992500", "184314.482500", "184315.972500", "184317.462500", "184318.952500", "184320.442500", "184321.932500", "184323.422500", "184324.912500", "184326.402500", "184327.892500", "184329.382500", "184330.872500", "184332.362500", "184333.852500", "184335.342500", "184336.832500", "184338.322500", "184339.812500", "184341.302500", "184342.792500", "184344.282500", "184345.772500", "184347.262500", "184348.752500", "184350.242500", "184351.732500", "184353.222500", "184354.712500", "184356.202500", "184357.692500", "184359.182500", "184400.672500", "184402.162500", "184403.652500", "184405.142500", "184406.632500", "184408.122500", "184409.612500", "184411.102500", "184412.592500", "184414.082500", "184415.572500", "184417.062500", "184418.552500", "184420.042500", "184421.532500", "184423.022500", "184424.512500", "184426.002500", "184427.492500", "184428.982500", "184430.472500", "184431.962500", "184433.452500", "184434.942500", "184436.432500", "184437.922500", "184439.412500", "184440.902500", "184442.392500", "184443.882500", "184445.372500", "184446.862500", "184448.352500", "184449.842500", "184451.332500", "184452.822500", "184454.312500", "184455.802500", "184457.292500", "184458.782500", "184500.272500", "184501.762500", "184503.252500", "184504.742500", "184506.232500", "184507.722500", "184509.212500", "184510.702500", "184512.192500", "184513.682500", "184515.172500", "184516.662500", "184518.152500", "184519.642500", "184521.132500", "184522.622500", "184524.112500", "184525.602500", "184527.092500", "184528.582500", "184530.072500", "184531.562500", "184533.052500", "184534.542500", "184536.032500", "184537.522500", "184539.012500", "184540.502500", "184541.992500", "184543.482500", "184544.972500", "184546.462500", "184547.952500", "184549.442500", "184550.932500", "184552.422500", "184553.912500", "184555.402500", "184556.892500", "184558.382500", "184559.872500", "184601.362500", "184602.852500", "184604.342500", "184605.832500", "184607.322500", "184608.812500", "184610.302500", "184611.792500", "184613.282500", "184614.772500", "184616.262500", "184617.752500", "184619.242500", "184620.732500", "184622.222500", "184623.712500", "184625.202500", "184626.692500", "184628.182500", "184629.672500", "184631.162500", "184632.652500", "184634.142500", "184635.632500", "184637.122500", "184638.612500", "184640.102500", "184641.592500", "184643.082500", "184644.572500", "184646.062500", "184647.552500", "184649.042500", "184650.532500", "184652.022500", "184653.512500", "184655.002500", "184656.492500", "184657.982500", "184659.472500", "184700.962500", "184702.452500", "184703.942500", "184705.432500", "184706.922500", "184708.412500", "184709.902500", "184711.392500", "184712.882500", "184714.372500", "184715.862500", "184717.352500", "184718.842500", "184720.332500", "184721.822500", "184723.312500", "184724.802500", "184726.292500", "184727.782500", "184729.272500", "184730.762500", "184732.252500", "184733.742500", "184735.232500", "184736.722500", "184738.212500", "184739.702500", "184741.192500", "184742.682500", "184744.172500", "184745.662500", "184747.152500", "184748.642500", "184750.132500", "184751.622500", "184753.112500", "184754.602500", "184756.092500", "184757.582500", "184759.072500", "184800.562500", "184802.052500", "184803.542500", "184805.032500", "184806.522500", "184808.012500", "184809.502500", "184810.992500", "184812.482500", "184813.972500", "184815.462500", "184816.952500", "184818.442500", "184819.932500", "184821.422500", "184822.912500", "184824.402500", "184825.892500", "184827.382500", "184828.872500", "184830.362500", "184831.852500", "184833.342500", "184834.832500", "184836.322500", "184837.812500", "184839.302500", "184840.792500", "184842.282500", "184843.772500", "184845.262500", "184846.752500", "184848.242500", "184849.732500", "184851.222500", "184852.712500", "184854.202500", "184855.692500", "184857.182500", "184858.672500", "184900.162500", "184901.652500", "184903.142500", "184904.632500", "184906.122500", "184907.612500", "184909.102500", "184910.592500", "184912.082500", "184913.572500", "184915.062500", "184916.552500", "184918.042500", "184919.532500", "184921.022500", "184922.512500", "184924.002500", "184925.492500", "184926.982500", "184928.472500", "184929.962500", "184931.452500", "184932.942500", "184934.432500", "184935.922500", "184937.412500", "184938.902500", "184940.392500", "184941.882500", "184943.372500", "184944.862500", "184946.352500", "184947.842500", "184949.332500", "184950.822500", "184952.312500", "184953.802500", "184955.292500", "184956.782500", "184958.272500", "184959.762500", "185001.252500", "185002.742500", "185004.232500", "185005.722500", "185007.212500", "185008.702500", "185010.192500", "185011.682500", "185013.172500", "185014.662500", "185016.152500", "185017.642500", "185019.132500", "185020.622500", "185022.112500", "185023.602500", "185025.092500", "185026.582500", "185028.072500", "185029.562500", "185031.052500", "185032.542500", "185034.032500", "185035.522500", "185037.012500", "185038.502500", "185039.992500", "185041.482500", "185042.972500", "185044.462500", "185045.952500", "185047.442500", "185048.932500", "185050.422500", "185051.912500", "185053.402500", "185054.892500", "185056.382500", "185057.872500", "185059.362500", "185100.852500", "185102.342500", "185103.832500", "185105.322500", "185106.812500", "185108.302500", "185109.792500", "185111.282500", "185112.772500", "185114.262500", "185115.752500", "185117.242500", "185118.732500", "185120.222500", "185121.712500", "185123.202500", "185124.692500", "185126.182500", "185127.672500", "185129.162500", "185130.652500", "185132.142500", "185133.632500", "185135.122500", "185136.612500", "185138.102500"],
      "ContentTime": ["184430.677000", "184430.680000", "184430.683000", "184430.685000", "184430.688000", "184430.690000", "184430.693000", "184430.695000", "184430.698000", "184430.700000", "184430.702000", "184430.705000", "184430.707000", "184430.710000", "184430.712000", "184430.715000", "184430.717000", "184430.720000", "184430.729000", "184430.732000", "184430.734000", "184430.737000", "184430.739000", "184430.742000", "184430.744000", "184430.747000", "184450.624000", "184450.627000", "184450.630000", "184450.632000", "184450.635000", "184450.637000", "184450.640000", "184450.642000", "184450.645000", "184450.647000", "184450.650000", "184450.652000", "184450.655000", "184450.657000", "184450.660000", "184450.662000", "184450.665000", "184450.667000", "184450.670000", "184450.672000", "184450.675000", "184510.601000", "184510.603000", "184510.606000", "184510.608000", "184510.611000", "184510.613000", "184510.616000", "184510.618000", "184510.621000", "184510.623000", "184510.626000", "184510.628000", "184510.640000", "184510.642000", "184510.645000", "184510.647000", "184510.650000", "184510.652000", "184510.655000", "184510.657000", "184530.617000", "184530.619000", "184530.622000", "184530.624000", "184530.627000", "184530.629000", "184530.632000", "184530.637000", "184530.640000", "184530.649000", "184530.652000", "184530.654000", "184530.657000", "184530.659000", "184530.662000", "184530.664000", "184530.667000", "184530.670000", "184530.672000", "184530.675000", "184611.098000", "184611.101000", "184611.104000", "184611.106000", "184611.109000", "184611.111000", "184611.114000", "184611.116000", "184611.119000", "184611.121000", "184611.124000", "184611.126000", "184611.129000", "184611.131000", "184611.134000", "184611.136000", "184611.139000", "184611.141000", "184611.144000", "184611.146000", "184611.149000", "184611.151000", "184611.154000", "184611.156000", "184611.159000", "184611.161000", "184611.164000", "184611.166000", "184611.169000", "184611.171000", "184611.174000", "184630.594000", "184630.597000", "184630.599000", "184630.602000", "184630.604000", "184630.607000", "184630.609000", "184630.612000", "184630.614000", "184630.617000", "184630.620000", "184630.622000", "184630.625000", "184630.627000", "184710.638000", "184710.641000", "184710.644000", "184710.646000", "184710.649000", "184710.651000", "184710.654000", "184710.656000", "184710.659000", "184710.661000", "184710.664000", "184710.666000", "184710.669000", "184710.671000", "184710.674000", "184710.676000", "184710.679000", "184710.688000", "184710.691000", "184710.693000", "184710.696000", "184710.698000", "184710.701000", "184710.704000", "184710.706000", "184710.709000", "184750.639000", "184750.641000", "184750.644000", "184750.647000", "184750.649000", "184750.652000", "184750.654000", "184750.657000", "184750.659000", "184750.662000", "184750.665000", "184750.667000", "184750.670000", "184750.672000", "184750.675000", "184750.677000", "184750.680000", "184750.682000", "184750.685000", "184750.687000", "184750.690000", "184750.692000", "184750.695000", "184750.697000", "184750.700000", "184750.704000", "184750.706000", "184830.635000", "184830.638000", "184830.640000", "184830.643000", "184830.646000", "184830.648000", "184830.651000", "184830.653000", "184830.656000", "184830.658000", "184830.661000", "184830.663000", "184830.666000", "184830.668000", "184830.671000", "184830.673000", "184830.676000", "184830.678000", "184830.681000", "184830.683000", "184830.686000", "184830.688000", "184830.691000", "184830.694000", "184830.696000", "184830.699000", "184830.701000", "184910.666000", "184910.668000", "184910.671000", "184910.673000", "184910.676000", "184910.678000", "184910.681000", "184910.684000", "184910.686000", "184910.689000", "184910.691000", "184910.694000", "184910.696000", "184910.699000", "184910.701000", "184910.704000", "184910.706000", "184910.709000", "184910.711000", "184910.714000", "184910.716000", "184910.719000", "184910.721000", "184910.724000", "184910.727000", "184910.729000", "184910.732000", "184950.640000", "184950.643000", "184950.645000", "184950.648000", "184950.651000", "184950.653000", "184950.656000", "184950.658000", "184950.661000", "184950.663000", "184950.666000", "184950.668000", "184950.671000", "184950.673000", "184950.676000", "184950.678000", "184950.681000", "184950.683000", "184950.686000", "184950.689000", "184950.691000", "184950.694000", "184950.696000", "184950.699000", "184950.701000", "184950.704000", "184950.706000", "185030.654000", "185030.656000", "185030.659000", "185030.662000", "185030.664000", "185030.667000", "185030.669000", "185030.672000", "185030.675000", "185030.677000", "185030.680000", "185030.682000", "185030.685000", "185030.687000", "185030.690000", "185030.693000", "185030.695000", "185030.698000", "185030.700000", "185030.703000", "185030.705000", "185030.708000", "185030.711000", "185030.713000", "185030.716000", "185030.718000", "185030.721000", "185110.627000", "185110.630000", "185110.633000", "185110.635000", "185110.642000", "185110.644000", "185110.647000", "185110.650000", "185110.652000", "185110.655000", "185110.657000", "185110.660000", "185110.663000", "185110.665000", "185110.668000", "185110.670000", "185110.673000", "185110.693000", "185110.695000", "185110.705000", "185110.707000", "185110.710000", "185110.713000", "185110.715000", "185110.718000", "185110.720000", "185140.620000", "185140.623000", "185140.625000", "185140.628000", "185140.630000", "185140.633000", "185140.635000", "185140.638000", "185140.641000", "185140.643000", "185140.646000", "185140.648000", "185140.651000", "185140.653000", "185140.656000", "185140.658000", "185140.661000", "185140.667000", "185140.670000", "185140.672000", "185140.675000"],
      "InstanceCreationTime": ["184430.677000", "184430.680000", "184430.683000", "184430.685000", "184430.688000", "184430.690000", "184430.693000", "184430.695000", "184430.698000", "184430.700000", "184430.702000", "184430.705000", "184430.707000", "184430.710000", "184430.712000", "184430.715000", "184430.717000", "184430.720000", "184430.729000", "184430.732000", "184430.734000", "184430.737000", "184430.739000", "184430.742000", "184430.744000", "184430.747000", "184450.624000", "184450.627000", "184450.630000", "184450.632000", "184450.635000", "184450.637000", "184450.640000", "184450.642000", "184450.645000", "184450.647000", "184450.650000", "184450.652000", "184450.655000", "184450.657000", "184450.660000", "184450.662000", "184450.665000", "184450.667000", "184450.670000", "184450.672000", "184450.675000", "184510.601000", "184510.603000", "184510.606000", "184510.608000", "184510.611000", "184510.613000", "184510.616000", "184510.618000", "184510.621000", "184510.623000", "184510.626000", "184510.628000", "184510.640000", "184510.642000", "184510.645000", "184510.647000", "184510.650000", "184510.652000", "184510.655000", "184510.657000", "184530.617000", "184530.619000", "184530.622000", "184530.624000", "184530.627000", "184530.629000", "184530.632000", "184530.637000", "184530.640000", "184530.649000", "184530.652000", "184530.654000", "184530.657000", "184530.659000", "184530.662000", "184530.664000", "184530.667000", "184530.670000", "184530.672000", "184530.675000", "184611.098000", "184611.101000", "184611.104000", "184611.106000", "184611.109000", "184611.111000", "184611.114000", "184611.116000", "184611.119000", "184611.121000", "184611.124000", "184611.126000", "184611.129000", "184611.131000", "184611.134000", "184611.136000", "184611.139000", "184611.141000", "184611.144000", "184611.146000", "184611.149000", "184611.151000", "184611.154000", "184611.156000", "184611.159000", "184611.161000", "184611.164000", "184611.166000", "184611.169000", "184611.171000", "184611.174000", "184630.594000", "184630.597000", "184630.599000", "184630.602000", "184630.604000", "184630.607000", "184630.609000", "184630.612000", "184630.614000", "184630.617000", "184630.620000", "184630.622000", "184630.625000", "184630.627000", "184710.638000", "184710.641000", "184710.644000", "184710.646000", "184710.649000", "184710.651000", "184710.654000", "184710.656000", "184710.659000", "184710.661000", "184710.664000", "184710.666000", "184710.669000", "184710.671000", "184710.674000", "184710.676000", "184710.679000", "184710.688000", "184710.691000", "184710.693000", "184710.696000", "184710.698000", "184710.701000", "184710.704000", "184710.706000", "184710.709000", "184750.639000", "184750.641000", "184750.644000", "184750.647000", "184750.649000", "184750.652000", "184750.654000", "184750.657000", "184750.659000", "184750.662000", "184750.665000", "184750.667000", "184750.670000", "184750.672000", "184750.675000", "184750.677000", "184750.680000", "184750.682000", "184750.685000", "184750.687000", "184750.690000", "184750.692000", "184750.695000", "184750.697000", "184750.700000", "184750.704000", "184750.706000", "184830.635000", "184830.638000", "184830.640000", "184830.643000", "184830.646000", "184830.648000", "184830.651000", "184830.653000", "184830.656000", "184830.658000", "184830.661000", "184830.663000", "184830.666000", "184830.668000", "184830.671000", "184830.673000", "184830.676000", "184830.678000", "184830.681000", "184830.683000", "184830.686000", "184830.688000", "184830.691000", "184830.694000", "184830.696000", "184830.699000", "184830.701000", "184910.666000", "184910.668000", "184910.671000", "184910.673000", "184910.676000", "184910.678000", "184910.681000", "184910.684000", "184910.686000", "184910.689000", "184910.691000", "184910.694000", "184910.696000", "184910.699000", "184910.701000", "184910.704000", "184910.706000", "184910.709000", "184910.711000", "184910.714000", "184910.716000", "184910.719000", "184910.721000", "184910.724000", "184910.727000", "184910.729000", "184910.732000", "184950.640000", "184950.643000", "184950.645000", "184950.648000", "184950.651000", "184950.653000", "184950.656000", "184950.658000", "184950.661000", "184950.663000", "184950.666000", "184950.668000", "184950.671000", "184950.673000", "184950.676000", "184950.678000", "184950.681000", "184950.683000", "184950.686000", "184950.689000", "184950.691000", "184950.694000", "184950.696000", "184950.699000", "184950.701000", "184950.704000", "184950.706000", "185030.654000", "185030.656000", "185030.659000", "185030.662000", "185030.664000", "185030.667000", "185030.669000", "185030.672000", "185030.675000", "185030.677000", "185030.680000", "185030.682000", "185030.685000", "185030.687000", "185030.690000", "185030.693000", "185030.695000", "185030.698000", "185030.700000", "185030.703000", "185030.705000", "185030.708000", "185030.711000", "185030.713000", "185030.716000", "185030.718000", "185030.721000", "185110.627000", "185110.630000", "185110.633000", "185110.635000", "185110.642000", "185110.644000", "185110.647000", "185110.650000", "185110.652000", "185110.655000", "185110.657000", "185110.660000", "185110.663000", "185110.665000", "185110.668000", "185110.670000", "185110.673000", "185110.693000", "185110.695000", "185110.705000", "185110.707000", "185110.710000", "185110.713000", "185110.715000", "185110.718000", "185110.720000", "185140.620000", "185140.623000", "185140.625000", "185140.628000", "185140.630000", "185140.633000", "185140.635000", "185140.638000", "185140.641000", "185140.643000", "185140.646000", "185140.648000", "185140.651000", "185140.653000", "185140.656000", "185140.658000", "185140.661000", "185140.667000", "185140.670000", "185140.672000", "185140.675000"],
      "InstanceNumber": [1, 2, 3, 4, 5, 6, 7, 8, 9, 10, 11, 12, 13, 14, 15, 16, 17, 18, 19, 20, 21, 22, 23, 24, 25, 26, 27, 28, 29, 30, 31, 32, 33, 34, 35, 36, 37, 38, 39, 40, 41, 42, 43, 44, 45, 46, 47, 48, 49, 50, 51, 52, 53, 54, 55, 56, 57, 58, 59, 60, 61, 62, 63, 64, 65, 66, 67, 68, 69, 70, 71, 72, 73, 74, 75, 76, 77, 78, 79, 80, 81, 82, 83, 84, 85, 86, 87, 88, 89, 90, 91, 92, 93, 94, 95, 96, 97, 98, 99, 100, 101, 102, 103, 104, 105, 106, 107, 108, 109, 110, 111, 112, 113, 114, 115, 116, 117, 118, 119, 120, 121, 122, 123, 124, 125, 126, 127, 128, 129, 130, 131, 132, 133, 134, 135, 136, 137, 138, 139, 140, 141, 142, 143, 144, 145, 146, 147, 148, 149, 150, 151, 152, 153, 154, 155, 156, 157, 158, 159, 160, 161, 162, 163, 164, 165, 166, 167, 168, 169, 170, 171, 172, 173, 174, 175, 176, 177, 178, 179, 180, 181, 182, 183, 184, 185, 186, 187, 188, 189, 190, 191, 192, 193, 194, 195, 196, 197, 198, 199, 200, 201, 202, 203, 204, 205, 206, 207, 208, 209, 210, 211, 212, 213, 214, 215, 216, 217, 218, 219, 220, 221, 222, 223, 224, 225, 226, 227, 228, 229, 230, 231, 232, 233, 234, 235, 236, 237, 238, 239, 240, 241, 242, 243, 244, 245, 246, 247, 248, 249, 250, 251, 252, 253, 254, 255, 256, 257, 258, 259, 260, 261, 262, 263, 264, 265, 266, 267, 268, 269, 270, 271, 272, 273, 274, 275, 276, 277, 278, 279, 280, 281, 282, 283, 284, 285, 286, 287, 288, 289, 290, 291, 292, 293, 294, 295, 296, 297, 298, 299, 300, 301, 302, 303, 304, 305, 306, 307, 308, 309, 310, 311, 312, 313, 314, 315, 316, 317, 318, 319, 320, 321, 322, 323, 324, 325, 326, 327, 328, 329, 330, 331, 332, 333, 334, 335, 336, 337, 338, 339, 340],
      "WindowCenter": [4782.0, 4758.0, 4786.0, 4762.0, 4758.0, 4782.0, 4784.0, 4758.0, 4786.0, 4762.0, 4784.0, 4782.0, 4784.0, 4760.0, 4788.0, 4784.0, 4762.0, 4764.0, 4758.0, 4760.0, 4758.0, 4760.0, 4760.0, 4784.0, 4786.0, 4764.0, 4766.0, 4762.0, 4760.0, 4758.0, 4762.0, 4784.0, 4764.0, 4762.0, 4764.0, 4760.0, 4764.0, 4762.0, 4758.0, 4756.0, 4760.0, 4758.0, 4776.0, 4748.0, 4788.0, 4794.0, 4798.0, 4792.0, 4788.0, 4760.0, 4754.0, 4752.0, 4752.0, 4778.0, 4760.0, 4760.0, 4786.0, 4788.0, 4766.0, 4786.0, 4760.0, 4758.0, 4752.0, 4756.0, 4760.0, 4782.0, 4764.0, 4764.0, 4788.0, 4784.0, 4762.0, 4762.0, 4762.0, 4760.0, 4786.0, 4760.0, 4760.0, 4764.0, 4784.0, 4762.0, 4786.0, 4786.0, 4760.0, 4758.0, 4762.0, 4762.0, 4784.0, 4784.0, 4762.0, 4760.0, 4784.0, 4762.0, 4756.0, 4760.0, 4760.0, 4762.0, 4762.0, 4786.0, 4762.0, 4786.0, 4784.0, 4782.0, 4760.0, 4784.0, 4762.0, 4760.0, 4760.0, 4760.0, 4782.0, 4760.0, 4754.0, 4758.0, 4762.0, 4764.0, 4764.0, 4762.0, 4764.0, 4762.0, 4764.0, 4760.0, 4758.0, 4758.0, 4756.0, 4756.0, 4758.0, 4758.0, 4762.0, 4786.0, 4786.0, 4790.0, 4762.0, 4788.0, 4788.0, 4758.0, 4756.0, 4758.0, 4756.0, 4756.0, 4758.0, 4754.0, 4760.0, 4762.0, 4766.0, 4760.0, 4758.0, 4762.0, 4754.0, 4758.0, 4760.0, 4758.0, 4760.0, 4782.0, 4764.0, 4762.0, 4758.0, 4756.0, 4760.0, 4758.0, 4760.0, 4760.0, 4788.0, 4786.0, 4766.0, 4764.0, 4788.0, 4764.0, 4760.0, 4758.0, 4764.0, 4786.0, 4758.0, 4780.0, 4758.0, 4758.0, 4784.0, 4786.0, 4770.0, 4768.0, 4764.0, 4782.0, 4758.0, 4782.0, 4784.0, 4784.0, 4782.0, 4784.0, 4782.0, 4786.0, 4764.0, 4788.0, 4786.0, 4784.0, 4762.0, 4786.0, 4784.0, 4784.0, 4790.0, 4782.0, 4758.0, 4762.0, 4764.0, 4786.0, 4784.0, 4790.0, 4786.0, 4786.0, 4764.0, 4760.0, 4786.0, 4786.0, 4782.0, 4762.0, 4786.0, 4794.0, 4788.0, 4786.0, 4786.0, 4788.0, 4786.0, 4786.0, 4786.0, 4790.0, 4788.0, 4796.0, 4794.0, 4788.0, 4786.0, 4784.0, 4782.0, 4790.0, 4790.0, 4768.0, 4786.0, 4786.0, 4790.0, 4786.0, 4762.0, 4760.0, 4784.0, 4760.0, 4784.0, 4764.0, 4762.0, 4788.0, 4792.0, 4788.0, 4788.0, 4786.0, 4786.0, 4788.0, 4764.0, 4764.0, 4762.0, 4762.0, 4784.0, 4782.0, 4782.0, 4784.0, 4782.0, 4784.0, 4788.0, 4788.0, 4792.0, 4766.0, 4788.0, 4790.0, 4762.0, 4788.0, 4764.0, 4764.0, 4784.0, 4756.0, 4760.0, 4758.0, 4784.0, 4764.0, 4788.0, 4790.0, 4764.0, 4782.0, 4784.0, 4758.0, 4786.0, 4766.0, 4790.0, 4764.0, 4764.0, 4788.0, 4762.0, 4788.0, 4788.0, 4764.0, 4788.0, 4790.0, 4786.0, 4788.0, 4766.0, 4782.0, 4788.0, 4788.0, 4788.0, 4788.0, 4790.0, 4786.0, 4792.0, 4788.0, 4786.0, 4786.0, 4786.0, 4780.0, 4782.0, 4786.0, 4764.0, 4790.0, 4790.0, 4788.0, 4788.0, 4792.0, 4790.0, 4786.0, 4788.0, 4786.0, 4760.0, 4786.0, 4764.0, 4788.0, 4788.0, 4784.0, 4784.0, 4788.0, 4796.0, 4792.0, 4766.0, 4762.0, 4758.0, 4758.0, 4762.0, 4764.0, 4764.0, 4762.0],
