{
  "AcquisitionMatrixPE": 104,
  "AcquisitionNumber": 1,
  "AcquisitionTime": "18:43:12.992500",
  "BandwidthPerPixelPhaseEncode": 17.17,
  "BaseResolution": 104,
  "BodyPartExamined": "BRAIN",
  "CoilCombinationMethod": "Sum of Squares",
  "ConsistencyInfo": "N4_VE11C_LATEST_20160120",
  "ConversionSoftware": "dcm2niix",
  "ConversionSoftwareVersion": "v1.0.20220505",
  "DerivedVendorReportedEchoSpacing": 0.000560011,
  "DeviceSerialNumber": "167006",
  "DwellTime": 2.1e-06,
  "EchoTime": 0.037,
  "EchoTrainLength": 104,
  "EffectiveEchoSpacing": 0.000560011,
  "FlipAngle": 52,
  "HeudiconvVersion": "0.5.3.post811+g6206e14",
  "ImageComments": "Unaliased MB4/PE3/LB",
  "ImageOrientationPatientDICOM": [0.999821, 0.00162199, 0.0188542, 0.00401353, 0.955479, -0.295032],
  "ImageOrientationText": "Tra>Cor(-17.2)>Sag(1.1)",
  "ImageType": [
    "ORIGINAL",
    "PRIMARY",
    "M",
    "MB",
    "ND",
    "MOSAIC"
],
  "ImagingFrequency": 123.26,
  "InPlanePhaseEncodingDirectionDICOM": "COL",
  "InstitutionAddress": "Chemin Queen-Mary 4565,Montreal,District,CA,H3W 1W5",
  "InstitutionName": "IUGM",
  "InstitutionalDepartmentName": "Department",
  "MRAcquisitionType": "2D",
  "MagneticFieldStrength": 3,
  "Manufacturer": "Siemens",
  "ManufacturersModelName": "Prisma_fit",
  "MatrixCoilMode": "SENSE",
  "Modality": "MR",
  "MultibandAccelerationFactor": 4,
  "PartialFourier": 1,
  "PatientPosition": "HFS",
  "PercentPhaseFOV": 100,
  "PercentSampling": 100,
  "PhaseEncodingDirection": "j",
  "PhaseEncodingSteps": 104,
  "PhaseResolution": 1,
  "PixelBandwidth": 2290,
  "ProcedureStepDescription": "games^mario3",
  "ProtocolName": "func_task-mario3_run-04",
  "PulseSequenceDetails": "%CustomerSeq%\\cmrr_mbep2d_bold",
  "ReceiveCoilActiveElements": "HC1-7;NC1,2",
  "ReceiveCoilName": "HeadNeck_64",
  "ReconMatrixPE": 104,
  "RepetitionTime": 1.49,
  "SAR": 0.054717,
  "ScanOptions": "FS",
  "ScanningSequence": "EP",
  "SequenceName": "epfid2d1_104",
  "SequenceVariant": "SK\\SS",
  "SeriesDescription": "func_task-mario3_run-04",
  "SeriesNumber": 22,
  "ShimSetting": [626, -7222, -8756, 680, 80, 14, 39, -6],
  "SliceThickness": 2,
  "SliceTiming": [0, 0.785, 0.0975, 0.8825, 0.1975, 0.98, 0.295, 1.0775, 0.3925, 1.1775, 0.49, 1.275, 0.5875, 1.3725, 0.6875, 0, 0.785, 0.0975, 0.8825, 0.1975, 0.98, 0.295, 1.0775, 0.3925, 1.1775, 0.49, 1.275, 0.5875, 1.3725, 0.6875, 0, 0.785, 0.0975, 0.8825, 0.1975, 0.98, 0.295, 1.0775, 0.3925, 1.1775, 0.49, 1.275, 0.5875, 1.3725, 0.6875, 0, 0.785, 0.0975, 0.8825, 0.1975, 0.98, 0.295, 1.0775, 0.3925, 1.1775, 0.49, 1.275, 0.5875, 1.3725, 0.6875],
  "SoftwareVersions": "syngo MR E11",
  "SpacingBetweenSlices": 2,
  "StationName": "MRC35049",
  "TaskName": "mario3",
  "TotalReadoutTime": 0.0576811,
  "TxRefAmp": 232.555,
  "WipMemBlock": "ebfe47a6-e012-477b-b92e-5ed3ba52cdc8||Sequence: R017 ve11c/master r/75a17815+; Jun 28 2022 16:32:11 by eja",
  "dcmmeta_affine": [
    [-1.9996418952941895, 0.00802706554532051, 0.03698667511343956, 107.6900405883789],
    [-0.0032439823262393475, 1.910957932472229, -0.5901094675064087, -71.35431671142578],
    [0.03770841658115387, 0.5900638103485107, 1.9106026887893677, -53.416873931884766],
    [0.0, 0.0, 0.0, 1.0]
],
  "dcmmeta_reorient_transform": [
    [0.0, -1.0, 0.0, 103.0],
    [1.0, 0.0, 0.0, 0.0],
    [0.0, 0.0, 1.0, 0.0],
    [0.0, 0.0, 0.0, 1.0]
],
  "dcmmeta_shape": [104, 104, 60, 340],
  "dcmmeta_slice_dim": 2,
  "dcmmeta_version": 0.6,
  "global": {
    "const": {
      "AcquisitionMatrix": [104, 0, 0, 104],
      "AngioFlag": "N",
      "BitsAllocated": 16,
      "BitsStored": 16,
      "BodyPartExamined": "BRAIN",
      "Columns": 832,
      "EchoNumbers": 1,
      "EchoTime": 37.0,
      "EchoTrainLength": 104,
      "FlipAngle": 52.0,
      "HighBit": 15,
      "ImageOrientationPatient": [0.99982092796353, 0.00162199110868, 0.01885420777936, 0.00401353292493, 0.95547897596748, -0.295031893255],
      "ImagePositionPatient": [-839.30831392822, -822.24385665815, 208.41705279104],
      "ImageType": [
        "ORIGINAL",
        "PRIMARY",
        "M",
        "MB",
        "ND",
        "MOSAIC"
],
      "ImagedNucleus": "1H",
      "ImagingFrequency": 123.260451,
      "InPlanePhaseEncodingDirection": "COL",
      "MRAcquisitionType": "2D",
      "MagneticFieldStrength": 3.0,
      "Manufacturer": "SIEMENS",
      "ManufacturerModelName": "Prisma_fit",
      "Modality": "MR",
      "NumberOfAverages": 1.0,
      "NumberOfPhaseEncodingSteps": 104,
      "PercentPhaseFieldOfView": 100.0,
      "PercentSampling": 100.0,
      "PerformedProcedureStepStartTime": "180223.696000",
      "PhotometricInterpretation": "MONOCHROME2",
      "PixelBandwidth": 2290.0,
      "PixelRepresentation": 0,
      "PixelSpacing": [2.0, 2.0],
      "ProtocolName": "func_task-mario3_run-04",
      "RepetitionTime": 1490.0,
      "Rows": 832,
      "SAR": 0.05471702199828,
      "SamplesPerPixel": 1,
      "ScanOptions": "FS",
      "ScanningSequence": "EP",
      "SequenceName": "epfid2d1_104",
      "SequenceVariant": [
        "SK",
        "SS"
],
      "SeriesDescription": "func_task-mario3_run-04",
      "SeriesNumber": 22,
      "SeriesTime": "184430.541000",
      "SliceLocation": -27.984233939306,
      "SliceThickness": 2.0,
      "SmallestImagePixelValue": 0,
      "SoftwareVersions": "syngo MR E11",
      "SpacingBetweenSlices": 1.9999999632102,
      "SpecificCharacterSet": "ISO_IR 100",
      "StudyID": "1",
      "StudyTime": "180223.618000",
      "TransmitCoilName": "Body",
      "VariableFlipAngleFlag": "N",
      "WindowCenterWidthExplanation": "Algo1",
      "dBdt": 0.0},
    "slices": {}
  },
  "time": {
    "samples": {
      "AcquisitionNumber": [1, 2, 3, 4, 5, 6, 7, 8, 9, 10, 11, 12, 13, 14, 15, 16, 17, 18, 19, 20, 21, 22, 23, 24, 25, 26, 27, 28, 29, 30, 31, 32, 33, 34, 35, 36, 37, 38, 39, 40, 41, 42, 43, 44, 45, 46, 47, 48, 49, 50, 51, 52, 53, 54, 55, 56, 57, 58, 59, 60, 61, 62, 63, 64, 65, 66, 67, 68, 69, 70, 71, 72, 73, 74, 75, 76, 77, 78, 79, 80, 81, 82, 83, 84, 85, 86, 87, 88, 89, 90, 91, 92, 93, 94, 95, 96, 97, 98, 99, 100, 101, 102, 103, 104, 105, 106, 107, 108, 109, 110, 111, 112, 113, 114, 115, 116, 117, 118, 119, 120, 121, 122, 123, 124, 125, 126, 127, 128, 129, 130, 131, 132, 133, 134, 135, 136, 137, 138, 139, 140, 141, 142, 143, 144, 145, 146, 147, 148, 149, 150, 151, 152, 153, 154, 155, 156, 157, 158, 159, 160, 161, 162, 163, 164, 165, 166, 167, 168, 169, 170, 171, 172, 173, 174, 175, 176, 177, 178, 179, 180, 181, 182, 183, 184, 185, 186, 187, 188, 189, 190, 191, 192, 193, 194, 195, 196, 197, 198, 199, 200, 201, 202, 203, 204, 205, 206, 207, 208, 209, 210, 211, 212, 213, 214, 215, 216, 217, 218, 219, 220, 221, 222, 223, 224, 225, 226, 227, 228, 229, 230, 231, 232, 233, 234, 235, 236, 237, 238, 239, 240, 241, 242, 243, 244, 245, 246, 247, 248, 249, 250, 251, 252, 253, 254, 255, 256, 257, 258, 259, 260, 261, 262, 263, 264, 265, 266, 267, 268, 269, 270, 271, 272, 273, 274, 275, 276, 277, 278, 279, 280, 281, 282, 283, 284, 285, 286, 287, 288, 289, 290, 291, 292, 293, 294, 295, 296, 297, 298, 299, 300, 301, 302, 303, 304, 305, 306, 307, 308, 309, 310, 311, 312, 313, 314, 315, 316, 317, 318, 319, 320, 321, 322, 323, 324, 325, 326, 327, 328, 329, 330, 331, 332, 333, 334, 335, 336, 337, 338, 339, 340],
      "AcquisitionTime": ["184312.992500", "184314.482500", "184315.972500", "184317.462500", "184318.952500", "184320.442500", "184321.932500", "184323.422500", "184324.912500", "184326.402500", "184327.892500", "184329.382500", "184330.872500", "184332.362500", "184333.852500", "184335.342500", "184336.832500", "184338.322500", "184339.812500", "184341.302500", "184342.792500", "184344.282500", "184345.772500", "184347.262500", "184348.752500", "184350.242500", "184351.732500", "184353.222500", "184354.712500", "184356.202500", "184357.692500", "184359.182500", "184400.672500", "184402.162500", "184403.652500", "184405.142500", "184406.632500", "184408.122500", "184409.612500", "184411.102500", "184412.592500", "184414.082500", "184415.572500", "184417.062500", "184418.552500", "184420.042500", "184421.532500", "184423.022500", "184424.512500", "184426.002500", "184427.492500", "184428.982500", "184430.472500", "184431.962500", "184433.452500", "184434.942500", "184436.432500", "184437.922500", "184439.412500", "184440.902500", "184442.392500", "184443.882500", "184445.372500", "184446.862500", "184448.352500", "184449.842500", "184451.332500", "184452.822500", "184454.312500", "184455.802500", "184457.292500", "184458.782500", "184500.272500", "184501.762500", "184503.252500", "184504.742500", "184506.232500", "184507.722500", "184509.212500", "184510.702500", "184512.192500", "184513.682500", "184515.172500", "184516.662500", "184518.152500", "184519.642500", "184521.132500", "184522.622500", "184524.112500", "184525.602500", "184527.092500", "184528.582500", "184530.072500", "184531.562500", "184533.052500", "184534.542500", "184536.032500", "184537.522500", "184539.012500", "184540.502500", "184541.992500", "184543.482500", "184544.972500", "184546.462500", "184547.952500", "184549.442500", "184550.932500", "184552.422500", "184553.912500", "184555.402500", "184556.892500", "184558.382500", "184559.872500", "184601.362500", "184602.852500", "184604.342500", "184605.832500", "184607.322500", "184608.812500", "184610.302500", "184611.792500", "184613.282500", "184614.772500", "184616.262500", "184617.752500", "184619.242500", "184620.732500", "184622.222500", "184623.712500", "184625.202500", "184626.692500", "184628.182500", "184629.672500", "184631.162500", "184632.652500", "184634.142500", "184635.632500", "184637.122500", "184638.612500", "184640.102500", "184641.592500", "184643.082500", "184644.572500", "184646.062500", "184647.552500", "184649.042500", "184650.532500", "184652.022500", "184653.512500", "184655.002500", "184656.492500", "184657.982500", "184659.472500", "184700.962500", "184702.452500", "184703.942500", "184705.432500", "184706.922500", "184708.412500", "184709.902500", "184711.392500", "184712.882500", "184714.372500", "184715.862500", "184717.352500", "184718.842500", "184720.332500", "184721.822500", "184723.312500", "184724.802500", "184726.292500", "184727.782500", "184729.272500", "184730.762500", "184732.252500", "184733.742500", "184735.232500", "184736.722500", "184738.212500", "184739.702500", "184741.192500", "184742.682500", "184744.172500", "184745.662500", "184747.152500", "184748.642500", "184750.132500", "184751.622500", "184753.112500", "184754.602500", "184756.092500", "184757.582500", "184759.072500", "184800.562500", "184802.052500", "184803.542500", "184805.032500", "184806.522500", "184808.012500", "184809.502500", "184810.992500", "184812.482500", "184813.972500", "184815.462500", "184816.952500", "184818.442500", "184819.932500", "184821.422500", "184822.912500", "184824.402500", "184825.892500", "184827.382500", "184828.872500", "184830.362500", "184831.852500", "184833.342500", "184834.832500", "184836.322500", "184837.812500", "184839.302500", "184840.792500", "184842.282500", "184843.772500", "184845.262500", "184846.752500", "184848.242500", "184849.732500", "184851.222500", "184852.712500", "184854.202500", "184855.692500", "184857.182500", "184858.672500", "184900.162500", "184901.652500", "184903.142500", "184904.632500", "184906.122500", "184907.612500", "184909.102500", "184910.592500", "184912.082500", "184913.572500", "184915.062500", "184916.552500", "184918.042500", "184919.532500", "184921.022500", "184922.512500", "184924.002500", "184925.492500", "184926.982500", "184928.472500", "184929.962500", "184931.452500", "184932.942500", "184934.432500", "184935.922500", "184937.412500", "184938.902500", "184940.392500", "184941.882500", "184943.372500", "184944.862500", "184946.352500", "184947.842500", "184949.332500", "184950.822500", "184952.312500", "184953.802500", "184955.292500", "184956.782500", "184958.272500", "184959.762500", "185001.252500", "185002.742500", "185004.232500", "185005.722500", "185007.212500", "185008.702500", "185010.192500", "185011.682500", "185013.172500", "185014.662500", "185016.152500", "185017.642500", "185019.132500", "185020.622500", "185022.112500", "185023.602500", "185025.092500", "185026.582500", "185028.072500", "185029.562500", "185031.052500", "185032.542500", "185034.032500", "185035.522500", "185037.012500", "185038.502500", "185039.992500", "185041.482500", "185042.972500", "185044.462500", "185045.952500", "185047.442500", "185048.932500", "185050.422500", "185051.912500", "185053.402500", "185054.892500", "185056.382500", "185057.872500", "185059.362500", "185100.852500", "185102.342500", "185103.832500", "185105.322500", "185106.812500", "185108.302500", "185109.792500", "185111.282500", "185112.772500", "185114.262500", "185115.752500", "185117.242500", "185118.732500", "185120.222500", "185121.712500", "185123.202500", "185124.692500", "185126.182500", "185127.672500", "185129.162500", "185130.652500", "185132.142500", "185133.632500", "185135.122500", "185136.612500", "185138.102500"],
      "ContentTime": ["184430.544000", "184430.548000", "184430.551000", "184430.555000", "184430.558000", "184430.561000", "184430.565000", "184430.568000", "184430.571000", "184430.574000", "184430.578000", "184430.581000", "184430.584000", "184430.588000", "184430.591000", "184430.594000", "184430.598000", "184430.601000", "184430.604000", "184430.608000", "184430.611000", "184430.614000", "184430.618000", "184430.621000", "184430.624000", "184430.628000", "184450.500000", "184450.504000", "184450.515000", "184450.518000", "184450.522000", "184450.525000", "184450.538000", "184450.542000", "184450.545000", "184450.548000", "184450.552000", "184450.555000", "184450.558000", "184450.562000", "184450.565000", "184450.568000", "184450.572000", "184450.575000", "184450.578000", "184450.582000", "184450.585000", "184510.500000", "184510.504000", "184510.507000", "184510.510000", "184510.514000", "184510.517000", "184510.520000", "184510.524000", "184510.527000", "184510.530000", "184510.534000", "184510.537000", "184510.540000", "184510.544000", "184510.547000", "184510.550000", "184510.553000", "184510.557000", "184510.560000", "184510.563000", "184530.499000", "184530.503000", "184530.506000", "184530.509000", "184530.513000", "184530.516000", "184530.519000", "184530.523000", "184530.526000", "184530.529000", "184530.533000", "184530.536000", "184530.539000", "184530.542000", "184530.546000", "184530.549000", "184530.552000", "184530.556000", "184530.559000", "184530.563000", "184610.499000", "184610.503000", "184610.506000", "184610.509000", "184610.513000", "184610.516000", "184610.519000", "184610.523000", "184610.526000", "184610.529000", "184610.533000", "184610.536000", "184610.539000", "184610.543000", "184610.546000", "184610.549000", "184610.553000", "184610.556000", "184610.559000", "184610.563000", "184610.566000", "184610.570000", "184610.573000", "184610.576000", "184610.579000", "184610.583000", "184610.586000", "184610.589000", "184610.593000", "184610.596000", "184610.599000", "184630.499000", "184630.503000", "184630.506000", "184630.510000", "184630.513000", "184630.516000", "184630.520000", "184630.523000", "184630.526000", "184630.530000", "184630.533000", "184630.536000", "184630.549000", "184630.552000", "184710.500000", "184710.504000", "184710.507000", "184710.511000", "184710.514000", "184710.517000", "184710.521000", "184710.524000", "184710.528000", "184710.531000", "184710.534000", "184710.538000", "184710.541000", "184710.544000", "184710.548000", "184710.551000", "184710.554000", "184710.557000", "184710.561000", "184710.564000", "184710.567000", "184710.571000", "184710.574000", "184710.577000", "184710.581000", "184710.584000", "184750.499000", "184750.503000", "184750.506000", "184750.510000", "184750.513000", "184750.516000", "184750.520000", "184750.523000", "184750.526000", "184750.539000", "184750.543000", "184750.546000", "184750.549000", "184750.553000", "184750.556000", "184750.559000", "184750.563000", "184750.566000", "184750.569000", "184750.573000", "184750.576000", "184750.579000", "184750.583000", "184750.586000", "184750.589000", "184750.593000", "184750.596000", "184830.499000", "184830.503000", "184830.506000", "184830.510000", "184830.513000", "184830.517000", "184830.520000", "184830.523000", "184830.527000", "184830.530000", "184830.533000", "184830.537000", "184830.540000", "184830.543000", "184830.546000", "184830.550000", "184830.553000", "184830.557000", "184830.560000", "184830.563000", "184830.566000", "184830.570000", "184830.573000", "184830.576000", "184830.580000", "184830.583000", "184830.586000", "184910.499000", "184910.503000", "184910.506000", "184910.510000", "184910.513000", "184910.516000", "184910.520000", "184910.523000", "184910.526000", "184910.529000", "184910.533000", "184910.536000", "184910.539000", "184910.543000", "184910.546000", "184910.549000", "184910.584000", "184910.587000", "184910.590000", "184910.594000", "184910.597000", "184910.600000", "184910.604000", "184910.607000", "184910.610000", "184910.614000", "184910.617000", "184950.499000", "184950.503000", "184950.506000", "184950.510000", "184950.513000", "184950.516000", "184950.520000", "184950.523000", "184950.527000", "184950.530000", "184950.533000", "184950.537000", "184950.540000", "184950.543000", "184950.546000", "184950.550000", "184950.553000", "184950.557000", "184950.560000", "184950.563000", "184950.567000", "184950.570000", "184950.573000", "184950.577000", "184950.580000", "184950.583000", "184950.587000", "185030.499000", "185030.503000", "185030.506000", "185030.510000", "185030.513000", "185030.516000", "185030.520000", "185030.523000", "185030.526000", "185030.530000", "185030.533000", "185030.536000", "185030.540000", "185030.543000", "185030.546000", "185030.550000", "185030.553000", "185030.556000", "185030.560000", "185030.563000", "185030.576000", "185030.579000", "185030.583000", "185030.586000", "185030.589000", "185030.593000", "185030.596000", "185110.500000", "185110.504000", "185110.507000", "185110.510000", "185110.514000", "185110.517000", "185110.521000", "185110.524000", "185110.527000", "185110.531000", "185110.534000", "185110.537000", "185110.541000", "185110.544000", "185110.547000", "185110.551000", "185110.554000", "185110.557000", "185110.563000", "185110.566000", "185110.570000", "185110.573000", "185110.576000", "185110.580000", "185110.583000", "185110.586000", "185140.508000", "185140.512000", "185140.515000", "185140.518000", "185140.522000", "185140.525000", "185140.528000", "185140.532000", "185140.535000", "185140.539000", "185140.542000", "185140.545000", "185140.549000", "185140.552000", "185140.556000", "185140.559000", "185140.562000", "185140.566000", "185140.569000", "185140.572000", "185140.576000"],
      "InstanceCreationTime": ["184430.544000", "184430.548000", "184430.551000", "184430.555000", "184430.558000", "184430.561000", "184430.565000", "184430.568000", "184430.571000", "184430.574000", "184430.578000", "184430.581000", "184430.584000", "184430.588000", "184430.591000", "184430.594000", "184430.598000", "184430.601000", "184430.604000", "184430.608000", "184430.611000", "184430.614000", "184430.618000", "184430.621000", "184430.624000", "184430.628000", "184450.500000", "184450.504000", "184450.515000", "184450.518000", "184450.522000", "184450.525000", "184450.538000", "184450.542000", "184450.545000", "184450.548000", "184450.552000", "184450.555000", "184450.558000", "184450.562000", "184450.565000", "184450.568000", "184450.572000", "184450.575000", "184450.578000", "184450.582000", "184450.585000", "184510.500000", "184510.504000", "184510.507000", "184510.510000", "184510.514000", "184510.517000", "184510.520000", "184510.524000", "184510.527000", "184510.530000", "184510.534000", "184510.537000", "184510.540000", "184510.544000", "184510.547000", "184510.550000", "184510.553000", "184510.557000", "184510.560000", "184510.563000", "184530.499000", "184530.503000", "184530.506000", "184530.509000", "184530.513000", "184530.516000", "184530.519000", "184530.523000", "184530.526000", "184530.529000", "184530.533000", "184530.536000", "184530.539000", "184530.542000", "184530.546000", "184530.549000", "184530.552000", "184530.556000", "184530.559000", "184530.563000", "184610.499000", "184610.503000", "184610.506000", "184610.509000", "184610.513000", "184610.516000", "184610.519000", "184610.523000", "184610.526000", "184610.529000", "184610.533000", "184610.536000", "184610.539000", "184610.543000", "184610.546000", "184610.549000", "184610.553000", "184610.556000", "184610.559000", "184610.563000", "184610.566000", "184610.570000", "184610.573000", "184610.576000", "184610.579000", "184610.583000", "184610.586000", "184610.589000", "184610.593000", "184610.596000", "184610.599000", "184630.499000", "184630.503000", "184630.506000", "184630.510000", "184630.513000", "184630.516000", "184630.520000", "184630.523000", "184630.526000", "184630.530000", "184630.533000", "184630.536000", "184630.549000", "184630.552000", "184710.500000", "184710.504000", "184710.507000", "184710.511000", "184710.514000", "184710.517000", "184710.521000", "184710.524000", "184710.528000", "184710.531000", "184710.534000", "184710.538000", "184710.541000", "184710.544000", "184710.548000", "184710.551000", "184710.554000", "184710.557000", "184710.561000", "184710.564000", "184710.567000", "184710.571000", "184710.574000", "184710.577000", "184710.581000", "184710.584000", "184750.499000", "184750.503000", "184750.506000", "184750.510000", "184750.513000", "184750.516000", "184750.520000", "184750.523000", "184750.526000", "184750.539000", "184750.543000", "184750.546000", "184750.549000", "184750.553000", "184750.556000", "184750.559000", "184750.563000", "184750.566000", "184750.569000", "184750.573000", "184750.576000", "184750.579000", "184750.583000", "184750.586000", "184750.589000", "184750.593000", "184750.596000", "184830.499000", "184830.503000", "184830.506000", "184830.510000", "184830.513000", "184830.517000", "184830.520000", "184830.523000", "184830.527000", "184830.530000", "184830.533000", "184830.537000", "184830.540000", "184830.543000", "184830.546000", "184830.550000", "184830.553000", "184830.557000", "184830.560000", "184830.563000", "184830.566000", "184830.570000", "184830.573000", "184830.576000", "184830.580000", "184830.583000", "184830.586000", "184910.499000", "184910.503000", "184910.506000", "184910.510000", "184910.513000", "184910.516000", "184910.520000", "184910.523000", "184910.526000", "184910.529000", "184910.533000", "184910.536000", "184910.539000", "184910.543000", "184910.546000", "184910.549000", "184910.584000", "184910.587000", "184910.590000", "184910.594000", "184910.597000", "184910.600000", "184910.604000", "184910.607000", "184910.610000", "184910.614000", "184910.617000", "184950.499000", "184950.503000", "184950.506000", "184950.510000", "184950.513000", "184950.516000", "184950.520000", "184950.523000", "184950.527000", "184950.530000", "184950.533000", "184950.537000", "184950.540000", "184950.543000", "184950.546000", "184950.550000", "184950.553000", "184950.557000", "184950.560000", "184950.563000", "184950.567000", "184950.570000", "184950.573000", "184950.577000", "184950.580000", "184950.583000", "184950.587000", "185030.499000", "185030.503000", "185030.506000", "185030.510000", "185030.513000", "185030.516000", "185030.520000", "185030.523000", "185030.526000", "185030.530000", "185030.533000", "185030.536000", "185030.540000", "185030.543000", "185030.546000", "185030.550000", "185030.553000", "185030.556000", "185030.560000", "185030.563000", "185030.576000", "185030.579000", "185030.583000", "185030.586000", "185030.589000", "185030.593000", "185030.596000", "185110.500000", "185110.504000", "185110.507000", "185110.510000", "185110.514000", "185110.517000", "185110.521000", "185110.524000", "185110.527000", "185110.531000", "185110.534000", "185110.537000", "185110.541000", "185110.544000", "185110.547000", "185110.551000", "185110.554000", "185110.557000", "185110.563000", "185110.566000", "185110.570000", "185110.573000", "185110.576000", "185110.580000", "185110.583000", "185110.586000", "185140.508000", "185140.512000", "185140.515000", "185140.518000", "185140.522000", "185140.525000", "185140.528000", "185140.532000", "185140.535000", "185140.539000", "185140.542000", "185140.545000", "185140.549000", "185140.552000", "185140.556000", "185140.559000", "185140.562000", "185140.566000", "185140.569000", "185140.572000", "185140.576000"],
      "InstanceNumber": [1, 2, 3, 4, 5, 6, 7, 8, 9, 10, 11, 12, 13, 14, 15, 16, 17, 18, 19, 20, 21, 22, 23, 24, 25, 26, 27, 28, 29, 30, 31, 32, 33, 34, 35, 36, 37, 38, 39, 40, 41, 42, 43, 44, 45, 46, 47, 48, 49, 50, 51, 52, 53, 54, 55, 56, 57, 58, 59, 60, 61, 62, 63, 64, 65, 66, 67, 68, 69, 70, 71, 72, 73, 74, 75, 76, 77, 78, 79, 80, 81, 82, 83, 84, 85, 86, 87, 88, 89, 90, 91, 92, 93, 94, 95, 96, 97, 98, 99, 100, 101, 102, 103, 104, 105, 106, 107, 108, 109, 110, 111, 112, 113, 114, 115, 116, 117, 118, 119, 120, 121, 122, 123, 124, 125, 126, 127, 128, 129, 130, 131, 132, 133, 134, 135, 136, 137, 138, 139, 140, 141, 142, 143, 144, 145, 146, 147, 148, 149, 150, 151, 152, 153, 154, 155, 156, 157, 158, 159, 160, 161, 162, 163, 164, 165, 166, 167, 168, 169, 170, 171, 172, 173, 174, 175, 176, 177, 178, 179, 180, 181, 182, 183, 184, 185, 186, 187, 188, 189, 190, 191, 192, 193, 194, 195, 196, 197, 198, 199, 200, 201, 202, 203, 204, 205, 206, 207, 208, 209, 210, 211, 212, 213, 214, 215, 216, 217, 218, 219, 220, 221, 222, 223, 224, 225, 226, 227, 228, 229, 230, 231, 232, 233, 234, 235, 236, 237, 238, 239, 240, 241, 242, 243, 244, 245, 246, 247, 248, 249, 250, 251, 252, 253, 254, 255, 256, 257, 258, 259, 260, 261, 262, 263, 264, 265, 266, 267, 268, 269, 270, 271, 272, 273, 274, 275, 276, 277, 278, 279, 280, 281, 282, 283, 284, 285, 286, 287, 288, 289, 290, 291, 292, 293, 294, 295, 296, 297, 298, 299, 300, 301, 302, 303, 304, 305, 306, 307, 308, 309, 310, 311, 312, 313, 314, 315, 316, 317, 318, 319, 320, 321, 322, 323, 324, 325, 326, 327, 328, 329, 330, 331, 332, 333, 334, 335, 336, 337, 338, 339, 340],
      "LargestImagePixelValue": [41790, 40487, 39826, 39427, 38909, 38616, 38785, 39160, 39005, 39331, 39070, 39092, 39096, 38691, 39124, 39072, 39039, 39522, 38783, 38631, 39778, 39490, 39201, 39300, 39362, 39136, 39304, 39514, 38881, 39281, 39725, 38554, 38534, 38687, 38522, 38861, 38929, 38820, 39023, 39013, 39235, 39005, 39418, 38577, 38924, 38824, 39137, 38713, 38931, 39041, 39108, 39124, 39312, 38805, 39490, 39759, 39665, 40122, 39459, 39407, 39986, 39646, 39236, 39271, 39702, 39601, 39679, 39543, 39267, 39222, 38992, 39442, 39433, 39244, 39170, 39092, 39128, 39195, 39017, 39031, 39687, 38765, 39337, 39059, 38972, 39431, 40190, 39530, 39566, 39879, 40038, 40059, 40026, 40491, 40066, 40112, 40283, 39519, 39788, 39547, 39809, 39864, 39904, 39312, 39524, 39868, 40416, 39196, 39819, 40558, 40746, 40603, 40500, 40601, 40469, 40470, 40215, 40116, 40114, 40729, 40275, 39397, 40260, 39587, 39882, 39173, 39617, 39821, 40788, 40152, 40090, 39942, 40267, 40280, 40037, 40468, 40277, 40531, 40128, 40470, 40586, 40306, 40068, 40619, 40231, 40296, 40073, 40452, 39916, 39896, 40395, 40454, 39356, 39645, 39516, 39819, 40113, 40204, 40131, 39759, 39549, 39871, 40238, 40112, 39334, 39278, 40387, 39663, 40147, 39642, 39371, 39191, 39910, 39342, 39566, 39415, 40131, 40098, 39650, 39259, 39505, 39293, 39671, 39942, 39260, 39145, 38998, 39156, 39656, 39615, 39509, 39427, 39579, 39271, 39043, 39009, 39110, 39454, 39616, 39048, 38809, 39243, 39234, 39176, 39084, 39650, 40201, 39204, 38935, 38939, 39081, 39106, 39147, 39288, 39110, 39170, 39986, 39890, 39330, 39236, 39626, 39398, 39538, 39256, 38963, 39552, 39484, 39180, 39382, 39751, 39218, 38937, 39411, 39136, 39509, 39783, 39753, 39327, 39437, 39363, 39670, 39232, 39270, 39657, 39660, 39438, 39515, 39177, 39117, 39301, 39386, 39574, 39153, 39190, 40280, 39520, 40098, 39512, 39128, 39728, 39209, 39152, 39489, 38840, 39737, 39399, 40519, 38357, 39591, 40288, 39222, 39712, 39569, 39454, 39023, 39006, 39329, 39400, 39556, 39522, 39296, 39569, 39384, 38923, 39024, 39088, 40044, 38759, 38754, 39282, 39609, 39497, 39779, 39172, 39167, 39368, 38996, 39670, 38854, 39595, 39684, 39031, 39856, 39285, 39154, 39299, 39398, 39397, 39711, 38991, 38846, 38913, 39265, 38838, 39360, 39203, 39231, 38860, 38988, 39241, 38429, 38537, 38859, 40134, 39030, 38860, 38346, 38781, 38317, 38935, 39154, 39785, 39041, 38890, 38856, 39005, 38752, 39257, 38782, 39166],
