{
  "AcquisitionMatrixPE": 104,
  "AcquisitionNumber": 1,
  "AcquisitionTime": "15:42:8.502500",
  "BandwidthPerPixelPhaseEncode": 17.17,
  "BaseResolution": 104,
  "BodyPartExamined": "BRAIN",
  "CoilCombinationMethod": "Sum of Squares",
  "ConsistencyInfo": "N4_VE11C_LATEST_20160120",
  "ConversionSoftware": "dcm2niix",
  "ConversionSoftwareVersion": "v1.0.20220505",
  "DerivedVendorReportedEchoSpacing": 0.000560011,
  "DeviceSerialNumber": "167006",
  "DwellTime": 2.1e-06,
  "EchoTime": 0.037,
  "EchoTrainLength": 104,
  "EffectiveEchoSpacing": 0.000560011,
  "FlipAngle": 52,
  "HeudiconvVersion": "0.5.3.post811+g6206e14",
  "ImageComments": "Unaliased MB4/PE3/LB",
  "ImageOrientationPatientDICOM": [0.998782, -0.0490697, 0.0051772, 0.0476255, 0.93128, -0.361179],
  "ImageOrientationText": "Tra>Cor(-21.2)>Sag(-0.7)",
  "ImageType": [
    "ORIGINAL",
    "PRIMARY",
    "M",
    "MB",
    "ND",
    "MOSAIC"
],
  "ImagingFrequency": 123.259,
  "InPlanePhaseEncodingDirectionDICOM": "COL",
  "InstitutionAddress": "Chemin Queen-Mary 4565,Montreal,District,CA,H3W 1W5",
  "InstitutionName": "IUGM",
  "InstitutionalDepartmentName": "Department",
  "MRAcquisitionType": "2D",
  "MagneticFieldStrength": 3,
  "Manufacturer": "Siemens",
  "ManufacturersModelName": "Prisma_fit",
  "MatrixCoilMode": "SENSE",
  "Modality": "MR",
  "MultibandAccelerationFactor": 4,
  "PartialFourier": 1,
  "PatientPosition": "HFS",
  "PercentPhaseFOV": 100,
  "PercentSampling": 100,
  "PhaseEncodingDirection": "j",
  "PhaseEncodingSteps": 104,
  "PhaseResolution": 1,
  "PixelBandwidth": 2290,
  "ProcedureStepDescription": "games^mario3",
  "ProtocolName": "func_task-mario3_run-01",
  "PulseSequenceDetails": "%CustomerSeq%\\cmrr_mbep2d_bold",
  "ReceiveCoilActiveElements": "HC1-7;NC1,2",
  "ReceiveCoilName": "HeadNeck_64",
  "ReconMatrixPE": 104,
  "RepetitionTime": 1.49,
  "SAR": 0.0426591,
  "ScanOptions": "FS",
  "ScanningSequence": "EP",
  "SequenceName": "epfid2d1_104",
  "SequenceVariant": "SK\\SS",
  "SeriesDescription": "func_task-mario3_run-01",
  "SeriesNumber": 10,
  "ShimSetting": [623, -7253, -8836, 529, -3, -226, -107, -9],
  "SliceThickness": 2,
  "SliceTiming": [0, 0.785, 0.0975, 0.8825, 0.195, 0.98, 0.295, 1.0775, 0.3925, 1.175, 0.49, 1.275, 0.5875, 1.3725, 0.685, 0, 0.785, 0.0975, 0.8825, 0.195, 0.98, 0.295, 1.0775, 0.3925, 1.175, 0.49, 1.275, 0.5875, 1.3725, 0.685, 0, 0.785, 0.0975, 0.8825, 0.195, 0.98, 0.295, 1.0775, 0.3925, 1.175, 0.49, 1.275, 0.5875, 1.3725, 0.685, 0, 0.785, 0.0975, 0.8825, 0.195, 0.98, 0.295, 1.0775, 0.3925, 1.175, 0.49, 1.275, 0.5875, 1.3725, 0.685],
  "SoftwareVersions": "syngo MR E11",
  "SpacingBetweenSlices": 2,
  "StationName": "MRC35049",
  "TaskName": "mario3",
  "TotalReadoutTime": 0.0576811,
  "TxRefAmp": 230.874,
  "WipMemBlock": "9ea76d6f-fa78-4e60-8f69-4ce5e5952af4||Sequence: R017 ve11c/master r/75a17815+; Jun 28 2022 16:32:11 by eja",
  "dcmmeta_affine": [
    [-1.9975638389587402, 0.09525106847286224, -0.02580302394926548, 102.13784790039062],
    [0.0981394350528717, 1.8625593185424805, -0.7219703793525696, -68.12928771972656],
    [0.010354393161833286, 0.7223570942878723, 1.8649646043777466, -69.29969787597656],
    [0.0, 0.0, 0.0, 1.0]
],
  "dcmmeta_reorient_transform": [
    [0.0, -1.0, 0.0, 103.0],
    [1.0, 0.0, 0.0, 0.0],
    [0.0, 0.0, 1.0, 0.0],
    [0.0, 0.0, 0.0, 1.0]
],
  "dcmmeta_shape": [104, 104, 60, 330],
  "dcmmeta_slice_dim": 2,
  "dcmmeta_version": 0.6,
  "global": {
    "const": {
      "AcquisitionMatrix": [104, 0, 0, 104],
      "AngioFlag": "N",
      "BitsAllocated": 16,
      "BitsStored": 16,
      "BodyPartExamined": "BRAIN",
      "Columns": 832,
      "EchoNumbers": 1,
      "EchoTime": 37.0,
      "EchoTrainLength": 104,
      "FlipAngle": 52.0,
      "HighBit": 15,
      "ImageOrientationPatient": [0.99878193787872, -0.049069717767, 0.00517719668318, 0.04762553473236, 0.93127968757561, -0.3611785596496],
      "ImagePositionPatient": [-873.73335002377, -765.96318577129, 264.27207724059],
      "ImageType": [
        "ORIGINAL",
        "PRIMARY",
        "M",
        "MB",
        "ND",
        "MOSAIC"
],
      "ImagedNucleus": "1H",
      "ImagingFrequency": 123.258778,
      "InPlanePhaseEncodingDirection": "COL",
      "MRAcquisitionType": "2D",
      "MagneticFieldStrength": 3.0,
      "Manufacturer": "SIEMENS",
      "ManufacturerModelName": "Prisma_fit",
      "Modality": "MR",
      "NumberOfAverages": 1.0,
      "NumberOfPhaseEncodingSteps": 104,
      "PercentPhaseFieldOfView": 100.0,
      "PercentSampling": 100.0,
      "PerformedProcedureStepStartTime": "153756.547000",
      "PhotometricInterpretation": "MONOCHROME2",
      "PixelBandwidth": 2290.0,
      "PixelRepresentation": 0,
      "PixelSpacing": [2.0, 2.0],
      "ProtocolName": "func_task-mario3_run-01",
      "RepetitionTime": 1490.0,
      "Rows": 832,
      "SAR": 0.04265909815804,
      "SamplesPerPixel": 1,
      "ScanOptions": "FS",
      "ScanningSequence": "EP",
      "SequenceName": "epfid2d1_104",
      "SequenceVariant": [
        "SK",
        "SS"
],
      "SeriesDescription": "func_task-mario3_run-01",
      "SeriesNumber": 10,
      "SeriesTime": "154319.750000",
      "SliceLocation": -41.344811080508,
      "SliceThickness": 2.0,
      "SmallestImagePixelValue": 0,
      "SoftwareVersions": "syngo MR E11",
      "SpacingBetweenSlices": 2.0000000004442,
      "SpecificCharacterSet": "ISO_IR 100",
      "StudyID": "1",
      "StudyTime": "153756.476000",
      "TransmitCoilName": "Body",
      "VariableFlipAngleFlag": "N",
      "WindowCenterWidthExplanation": "Algo1",
      "dBdt": 0.0},
    "slices": {}
  },
  "time": {
    "samples": {
      "AcquisitionNumber": [1, 2, 3, 4, 5, 6, 7, 8, 9, 10, 11, 12, 13, 14, 15, 16, 17, 18, 19, 20, 21, 22, 23, 24, 25, 26, 27, 28, 29, 30, 31, 32, 33, 34, 35, 36, 37, 38, 39, 40, 41, 42, 43, 44, 45, 46, 47, 48, 49, 50, 51, 52, 53, 54, 55, 56, 57, 58, 59, 60, 61, 62, 63, 64, 65, 66, 67, 68, 69, 70, 71, 72, 73, 74, 75, 76, 77, 78, 79, 80, 81, 82, 83, 84, 85, 86, 87, 88, 89, 90, 91, 92, 93, 94, 95, 96, 97, 98, 99, 100, 101, 102, 103, 104, 105, 106, 107, 108, 109, 110, 111, 112, 113, 114, 115, 116, 117, 118, 119, 120, 121, 122, 123, 124, 125, 126, 127, 128, 129, 130, 131, 132, 133, 134, 135, 136, 137, 138, 139, 140, 141, 142, 143, 144, 145, 146, 147, 148, 149, 150, 151, 152, 153, 154, 155, 156, 157, 158, 159, 160, 161, 162, 163, 164, 165, 166, 167, 168, 169, 170, 171, 172, 173, 174, 175, 176, 177, 178, 179, 180, 181, 182, 183, 184, 185, 186, 187, 188, 189, 190, 191, 192, 193, 194, 195, 196, 197, 198, 199, 200, 201, 202, 203, 204, 205, 206, 207, 208, 209, 210, 211, 212, 213, 214, 215, 216, 217, 218, 219, 220, 221, 222, 223, 224, 225, 226, 227, 228, 229, 230, 231, 232, 233, 234, 235, 236, 237, 238, 239, 240, 241, 242, 243, 244, 245, 246, 247, 248, 249, 250, 251, 252, 253, 254, 255, 256, 257, 258, 259, 260, 261, 262, 263, 264, 265, 266, 267, 268, 269, 270, 271, 272, 273, 274, 275, 276, 277, 278, 279, 280, 281, 282, 283, 284, 285, 286, 287, 288, 289, 290, 291, 292, 293, 294, 295, 296, 297, 298, 299, 300, 301, 302, 303, 304, 305, 306, 307, 308, 309, 310, 311, 312, 313, 314, 315, 316, 317, 318, 319, 320, 321, 322, 323, 324, 325, 326, 327, 328, 329, 330],
      "AcquisitionTime": ["154208.502500", "154209.992500", "154211.482500", "154212.972500", "154214.462500", "154215.952500", "154217.442500", "154218.932500", "154220.422500", "154221.912500", "154223.402500", "154224.892500", "154226.382500", "154227.872500", "154229.362500", "154230.852500", "154232.342500", "154233.832500", "154235.322500", "154236.812500", "154238.302500", "154239.792500", "154241.282500", "154242.772500", "154244.262500", "154245.752500", "154247.242500", "154248.732500", "154250.222500", "154251.712500", "154253.202500", "154254.692500", "154256.182500", "154257.672500", "154259.162500", "154300.652500", "154302.142500", "154303.632500", "154305.122500", "154306.612500", "154308.102500", "154309.592500", "154311.082500", "154312.572500", "154314.062500", "154315.552500", "154317.042500", "154318.532500", "154320.022500", "154321.512500", "154323.002500", "154324.492500", "154325.982500", "154327.472500", "154328.962500", "154330.452500", "154331.942500", "154333.432500", "154334.922500", "154336.412500", "154337.902500", "154339.392500", "154340.882500", "154342.372500", "154343.862500", "154345.352500", "154346.842500", "154348.332500", "154349.822500", "154351.312500", "154352.802500", "154354.292500", "154355.782500", "154357.272500", "154358.762500", "154400.252500", "154401.742500", "154403.232500", "154404.722500", "154406.212500", "154407.702500", "154409.192500", "154410.682500", "154412.172500", "154413.662500", "154415.152500", "154416.642500", "154418.132500", "154419.622500", "154421.112500", "154422.602500", "154424.092500", "154425.582500", "154427.072500", "154428.562500", "154430.052500", "154431.542500", "154433.032500", "154434.522500", "154436.012500", "154437.502500", "154438.992500", "154440.482500", "154441.972500", "154443.462500", "154444.952500", "154446.442500", "154447.932500", "154449.422500", "154450.912500", "154452.402500", "154453.892500", "154455.382500", "154456.872500", "154458.362500", "154459.852500", "154501.342500", "154502.832500", "154504.322500", "154505.812500", "154507.302500", "154508.792500", "154510.282500", "154511.772500", "154513.262500", "154514.752500", "154516.242500", "154517.732500", "154519.222500", "154520.712500", "154522.202500", "154523.692500", "154525.182500", "154526.672500", "154528.162500", "154529.652500", "154531.142500", "154532.632500", "154534.122500", "154535.612500", "154537.102500", "154538.592500", "154540.082500", "154541.572500", "154543.062500", "154544.552500", "154546.042500", "154547.532500", "154549.022500", "154550.512500", "154552.002500", "154553.492500", "154554.982500", "154556.472500", "154557.962500", "154559.452500", "154600.942500", "154602.432500", "154603.922500", "154605.412500", "154606.902500", "154608.392500", "154609.882500", "154611.372500", "154612.862500", "154614.352500", "154615.842500", "154617.332500", "154618.822500", "154620.312500", "154621.802500", "154623.292500", "154624.782500", "154626.272500", "154627.762500", "154629.252500", "154630.742500", "154632.232500", "154633.722500", "154635.212500", "154636.702500", "154638.192500", "154639.682500", "154641.172500", "154642.662500", "154644.152500", "154645.642500", "154647.132500", "154648.622500", "154650.112500", "154651.602500", "154653.092500", "154654.582500", "154656.072500", "154657.562500", "154659.052500", "154700.542500", "154702.032500", "154703.522500", "154705.012500", "154706.502500", "154707.992500", "154709.482500", "154710.972500", "154712.462500", "154713.952500", "154715.442500", "154716.932500", "154718.422500", "154719.912500", "154721.402500", "154722.892500", "154724.382500", "154725.872500", "154727.362500", "154728.852500", "154730.342500", "154731.832500", "154733.322500", "154734.812500", "154736.302500", "154737.792500", "154739.282500", "154740.772500", "154742.262500", "154743.752500", "154745.242500", "154746.732500", "154748.222500", "154749.712500", "154751.202500", "154752.692500", "154754.182500", "154755.672500", "154757.162500", "154758.652500", "154800.142500", "154801.632500", "154803.122500", "154804.612500", "154806.102500", "154807.592500", "154809.082500", "154810.572500", "154812.062500", "154813.552500", "154815.042500", "154816.532500", "154818.022500", "154819.512500", "154821.002500", "154822.492500", "154823.982500", "154825.472500", "154826.962500", "154828.452500", "154829.942500", "154831.432500", "154832.922500", "154834.412500", "154835.902500", "154837.392500", "154838.882500", "154840.372500", "154841.862500", "154843.352500", "154844.842500", "154846.332500", "154847.822500", "154849.312500", "154850.802500", "154852.292500", "154853.782500", "154855.272500", "154856.762500", "154858.252500", "154859.742500", "154901.232500", "154902.722500", "154904.212500", "154905.702500", "154907.192500", "154908.682500", "154910.172500", "154911.662500", "154913.152500", "154914.642500", "154916.132500", "154917.622500", "154919.112500", "154920.602500", "154922.092500", "154923.582500", "154925.072500", "154926.562500", "154928.052500", "154929.542500", "154931.032500", "154932.522500", "154934.012500", "154935.502500", "154936.992500", "154938.482500", "154939.972500", "154941.462500", "154942.952500", "154944.442500", "154945.932500", "154947.422500", "154948.912500", "154950.402500", "154951.892500", "154953.382500", "154954.872500", "154956.362500", "154957.852500", "154959.342500", "155000.832500", "155002.322500", "155003.812500", "155005.302500", "155006.792500", "155008.282500", "155009.772500", "155011.262500", "155012.752500", "155014.242500", "155015.732500", "155017.222500", "155018.712500"],
      "ContentTime": ["154319.754000", "154319.758000", "154319.761000", "154319.764000", "154319.768000", "154319.771000", "154319.781000", "154319.784000", "154319.788000", "154319.791000", "154319.794000", "154319.797000", "154319.801000", "154319.827000", "154319.830000", "154319.834000", "154319.837000", "154319.840000", "154319.844000", "154319.847000", "154319.850000", "154319.854000", "154339.717000", "154339.721000", "154339.724000", "154339.727000", "154339.731000", "154339.734000", "154339.737000", "154339.740000", "154339.744000", "154339.747000", "154339.750000", "154339.753000", "154339.757000", "154339.760000", "154339.763000", "154339.766000", "154339.770000", "154339.773000", "154339.776000", "154339.780000", "154339.783000", "154359.717000", "154359.721000", "154359.724000", "154359.730000", "154359.733000", "154359.736000", "154359.740000", "154359.743000", "154359.746000", "154359.749000", "154359.753000", "154359.756000", "154359.759000", "154359.763000", "154359.766000", "154359.769000", "154359.773000", "154359.776000", "154359.779000", "154359.782000", "154419.717000", "154419.721000", "154419.724000", "154419.727000", "154419.730000", "154419.734000", "154419.737000", "154419.740000", "154419.744000", "154419.747000", "154419.750000", "154419.753000", "154419.757000", "154419.760000", "154419.763000", "154419.767000", "154419.770000", "154419.773000", "154419.776000", "154419.780000", "154459.718000", "154459.721000", "154459.724000", "154459.727000", "154459.731000", "154459.734000", "154459.737000", "154459.741000", "154459.744000", "154459.747000", "154459.750000", "154459.754000", "154459.757000", "154459.760000", "154459.763000", "154459.767000", "154459.770000", "154459.773000", "154459.776000", "154459.780000", "154459.791000", "154459.795000", "154459.813000", "154459.817000", "154459.820000", "154459.823000", "154459.826000", "154459.830000", "154459.833000", "154459.836000", "154459.839000", "154539.718000", "154539.722000", "154539.725000", "154539.728000", "154539.732000", "154539.735000", "154539.738000", "154539.742000", "154539.745000", "154539.748000", "154539.752000", "154539.755000", "154539.758000", "154539.761000", "154539.765000", "154539.768000", "154539.771000", "154539.775000", "154539.778000", "154539.781000", "154539.785000", "154539.788000", "154539.791000", "154539.794000", "154539.798000", "154539.801000", "154539.804000", "154619.717000", "154619.721000", "154619.724000", "154619.727000", "154619.731000", "154619.734000", "154619.737000", "154619.740000", "154619.744000", "154619.747000", "154619.750000", "154619.754000", "154619.757000", "154619.760000", "154619.763000", "154619.767000", "154619.778000", "154619.782000", "154619.785000", "154619.788000", "154619.791000", "154619.795000", "154619.798000", "154619.801000", "154619.805000", "154619.808000", "154619.811000", "154659.717000", "154659.721000", "154659.724000", "154659.727000", "154659.731000", "154659.734000", "154659.737000", "154659.740000", "154659.744000", "154659.747000", "154659.750000", "154659.754000", "154659.757000", "154659.760000", "154659.764000", "154659.767000", "154659.771000", "154659.774000", "154659.777000", "154659.781000", "154659.784000", "154659.787000", "154659.790000", "154659.794000", "154659.797000", "154659.800000", "154659.804000", "154739.717000", "154739.721000", "154739.724000", "154739.727000", "154739.731000", "154739.734000", "154739.754000", "154739.757000", "154739.760000", "154739.764000", "154739.767000", "154739.770000", "154739.773000", "154739.777000", "154739.780000", "154739.783000", "154739.787000", "154739.790000", "154739.793000", "154739.796000", "154739.800000", "154739.803000", "154739.806000", "154739.809000", "154739.813000", "154739.816000", "154739.819000", "154819.717000", "154819.721000", "154819.725000", "154819.728000", "154819.732000", "154819.735000", "154819.738000", "154819.741000", "154819.745000", "154819.748000", "154819.751000", "154819.755000", "154819.758000", "154819.761000", "154819.764000", "154819.768000", "154819.771000", "154819.775000", "154819.778000", "154819.781000", "154819.785000", "154819.788000", "154819.791000", "154819.795000", "154819.798000", "154819.801000", "154859.717000", "154859.721000", "154859.724000", "154859.727000", "154859.731000", "154859.734000", "154859.737000", "154859.741000", "154859.744000", "154859.755000", "154859.759000", "154859.762000", "154859.765000", "154859.769000", "154859.772000", "154859.775000", "154859.778000", "154859.782000", "154859.785000", "154859.788000", "154859.792000", "154859.795000", "154859.798000", "154859.801000", "154859.805000", "154859.808000", "154859.811000", "154939.717000", "154939.721000", "154939.724000", "154939.727000", "154939.731000", "154939.742000", "154939.746000", "154939.749000", "154939.752000", "154939.756000", "154939.759000", "154939.762000", "154939.765000", "154939.769000", "154939.772000", "154939.775000", "154939.779000", "154939.782000", "154939.785000", "154939.789000", "154939.792000", "154939.795000", "154939.798000", "154939.802000", "154939.805000", "154939.808000", "154939.829000", "154959.717000", "154959.721000", "154959.724000", "154959.727000", "154959.731000", "154959.734000", "154959.737000", "154959.741000", "154959.744000", "154959.747000", "154959.750000", "154959.754000", "154959.757000", "154959.760000", "155020.676000", "155020.680000", "155020.683000", "155020.687000", "155020.690000", "155020.693000", "155020.697000", "155020.700000", "155020.703000", "155020.707000", "155020.710000", "155020.713000", "155020.716000", "155020.720000"],
      "InstanceCreationTime": ["154319.754000", "154319.758000", "154319.761000", "154319.764000", "154319.768000", "154319.771000", "154319.781000", "154319.784000", "154319.788000", "154319.791000", "154319.794000", "154319.797000", "154319.801000", "154319.827000", "154319.830000", "154319.834000", "154319.837000", "154319.840000", "154319.844000", "154319.847000", "154319.850000", "154319.854000", "154339.717000", "154339.721000", "154339.724000", "154339.727000", "154339.731000", "154339.734000", "154339.737000", "154339.740000", "154339.744000", "154339.747000", "154339.750000", "154339.753000", "154339.757000", "154339.760000", "154339.763000", "154339.766000", "154339.770000", "154339.773000", "154339.776000", "154339.780000", "154339.783000", "154359.717000", "154359.721000", "154359.724000", "154359.730000", "154359.733000", "154359.736000", "154359.740000", "154359.743000", "154359.746000", "154359.749000", "154359.753000", "154359.756000", "154359.759000", "154359.763000", "154359.766000", "154359.769000", "154359.773000", "154359.776000", "154359.779000", "154359.782000", "154419.717000", "154419.721000", "154419.724000", "154419.727000", "154419.730000", "154419.734000", "154419.737000", "154419.740000", "154419.744000", "154419.747000", "154419.750000", "154419.753000", "154419.757000", "154419.760000", "154419.763000", "154419.767000", "154419.770000", "154419.773000", "154419.776000", "154419.780000", "154459.718000", "154459.721000", "154459.724000", "154459.727000", "154459.731000", "154459.734000", "154459.737000", "154459.741000", "154459.744000", "154459.747000", "154459.750000", "154459.754000", "154459.757000", "154459.760000", "154459.763000", "154459.767000", "154459.770000", "154459.773000", "154459.776000", "154459.780000", "154459.791000", "154459.795000", "154459.813000", "154459.817000", "154459.820000", "154459.823000", "154459.826000", "154459.830000", "154459.833000", "154459.836000", "154459.839000", "154539.718000", "154539.722000", "154539.725000", "154539.728000", "154539.732000", "154539.735000", "154539.738000", "154539.742000", "154539.745000", "154539.748000", "154539.752000", "154539.755000", "154539.758000", "154539.761000", "154539.765000", "154539.768000", "154539.771000", "154539.775000", "154539.778000", "154539.781000", "154539.785000", "154539.788000", "154539.791000", "154539.794000", "154539.798000", "154539.801000", "154539.804000", "154619.717000", "154619.721000", "154619.724000", "154619.727000", "154619.731000", "154619.734000", "154619.737000", "154619.740000", "154619.744000", "154619.747000", "154619.750000", "154619.754000", "154619.757000", "154619.760000", "154619.763000", "154619.767000", "154619.778000", "154619.782000", "154619.785000", "154619.788000", "154619.791000", "154619.795000", "154619.798000", "154619.801000", "154619.805000", "154619.808000", "154619.811000", "154659.717000", "154659.721000", "154659.724000", "154659.727000", "154659.731000", "154659.734000", "154659.737000", "154659.740000", "154659.744000", "154659.747000", "154659.750000", "154659.754000", "154659.757000", "154659.760000", "154659.764000", "154659.767000", "154659.771000", "154659.774000", "154659.777000", "154659.781000", "154659.784000", "154659.787000", "154659.790000", "154659.794000", "154659.797000", "154659.800000", "154659.804000", "154739.717000", "154739.721000", "154739.724000", "154739.727000", "154739.731000", "154739.734000", "154739.754000", "154739.757000", "154739.760000", "154739.764000", "154739.767000", "154739.770000", "154739.773000", "154739.777000", "154739.780000", "154739.783000", "154739.787000", "154739.790000", "154739.793000", "154739.796000", "154739.800000", "154739.803000", "154739.806000", "154739.809000", "154739.813000", "154739.816000", "154739.819000", "154819.717000", "154819.721000", "154819.725000", "154819.728000", "154819.732000", "154819.735000", "154819.738000", "154819.741000", "154819.745000", "154819.748000", "154819.751000", "154819.755000", "154819.758000", "154819.761000", "154819.764000", "154819.768000", "154819.771000", "154819.775000", "154819.778000", "154819.781000", "154819.785000", "154819.788000", "154819.791000", "154819.795000", "154819.798000", "154819.801000", "154859.717000", "154859.721000", "154859.724000", "154859.727000", "154859.731000", "154859.734000", "154859.737000", "154859.741000", "154859.744000", "154859.755000", "154859.759000", "154859.762000", "154859.765000", "154859.769000", "154859.772000", "154859.775000", "154859.778000", "154859.782000", "154859.785000", "154859.788000", "154859.792000", "154859.795000", "154859.798000", "154859.801000", "154859.805000", "154859.808000", "154859.811000", "154939.717000", "154939.721000", "154939.724000", "154939.727000", "154939.731000", "154939.742000", "154939.746000", "154939.749000", "154939.752000", "154939.756000", "154939.759000", "154939.762000", "154939.765000", "154939.769000", "154939.772000", "154939.775000", "154939.779000", "154939.782000", "154939.785000", "154939.789000", "154939.792000", "154939.795000", "154939.798000", "154939.802000", "154939.805000", "154939.808000", "154939.829000", "154959.717000", "154959.721000", "154959.724000", "154959.727000", "154959.731000", "154959.734000", "154959.737000", "154959.741000", "154959.744000", "154959.747000", "154959.750000", "154959.754000", "154959.757000", "154959.760000", "155020.676000", "155020.680000", "155020.683000", "155020.687000", "155020.690000", "155020.693000", "155020.697000", "155020.700000", "155020.703000", "155020.707000", "155020.710000", "155020.713000", "155020.716000", "155020.720000"],
      "InstanceNumber": [1, 2, 3, 4, 5, 6, 7, 8, 9, 10, 11, 12, 13, 14, 15, 16, 17, 18, 19, 20, 21, 22, 23, 24, 25, 26, 27, 28, 29, 30, 31, 32, 33, 34, 35, 36, 37, 38, 39, 40, 41, 42, 43, 44, 45, 46, 47, 48, 49, 50, 51, 52, 53, 54, 55, 56, 57, 58, 59, 60, 61, 62, 63, 64, 65, 66, 67, 68, 69, 70, 71, 72, 73, 74, 75, 76, 77, 78, 79, 80, 81, 82, 83, 84, 85, 86, 87, 88, 89, 90, 91, 92, 93, 94, 95, 96, 97, 98, 99, 100, 101, 102, 103, 104, 105, 106, 107, 108, 109, 110, 111, 112, 113, 114, 115, 116, 117, 118, 119, 120, 121, 122, 123, 124, 125, 126, 127, 128, 129, 130, 131, 132, 133, 134, 135, 136, 137, 138, 139, 140, 141, 142, 143, 144, 145, 146, 147, 148, 149, 150, 151, 152, 153, 154, 155, 156, 157, 158, 159, 160, 161, 162, 163, 164, 165, 166, 167, 168, 169, 170, 171, 172, 173, 174, 175, 176, 177, 178, 179, 180, 181, 182, 183, 184, 185, 186, 187, 188, 189, 190, 191, 192, 193, 194, 195, 196, 197, 198, 199, 200, 201, 202, 203, 204, 205, 206, 207, 208, 209, 210, 211, 212, 213, 214, 215, 216, 217, 218, 219, 220, 221, 222, 223, 224, 225, 226, 227, 228, 229, 230, 231, 232, 233, 234, 235, 236, 237, 238, 239, 240, 241, 242, 243, 244, 245, 246, 247, 248, 249, 250, 251, 252, 253, 254, 255, 256, 257, 258, 259, 260, 261, 262, 263, 264, 265, 266, 267, 268, 269, 270, 271, 272, 273, 274, 275, 276, 277, 278, 279, 280, 281, 282, 283, 284, 285, 286, 287, 288, 289, 290, 291, 292, 293, 294, 295, 296, 297, 298, 299, 300, 301, 302, 303, 304, 305, 306, 307, 308, 309, 310, 311, 312, 313, 314, 315, 316, 317, 318, 319, 320, 321, 322, 323, 324, 325, 326, 327, 328, 329, 330],
      "LargestImagePixelValue": [44911, 42692, 40293, 39009, 40246, 40121, 40579, 41407, 40839, 40661, 40286, 41270, 38899, 43565, 41685, 43922, 42446, 42217, 42948, 41491, 38720, 39443, 39270, 39079, 39686, 41756, 42345, 42436, 42268, 42203, 37150, 41287, 41183, 40941, 41045, 40405, 39516, 39968, 41436, 42707, 39460, 37914, 41933, 41959, 39729, 40836, 41540, 41889, 42463, 42421, 42565, 42201, 42139, 40778, 38906, 42108, 41587, 41847, 39822, 41007, 40754, 39965, 41100, 41788, 40332, 40507, 39539, 39585, 39714, 40445, 40551, 40529, 40713, 39823, 38555, 38252, 37753, 39409, 40456, 39443, 38891, 40055, 38091, 38584, 39279, 38754, 39117, 40329, 39533, 39617, 39295, 39804, 39868, 39002, 39237, 39374, 38748, 40952, 39741, 39286, 38973, 39214, 39065, 39254, 38654, 39294, 38890, 39740, 39174, 39292, 39265, 39310, 41245, 38256, 38900, 38885, 38899, 39732, 38715, 38657, 38630, 39765, 39478, 38954, 39656, 40836, 39460, 38918, 39016, 38871, 39353, 39194, 38745, 38417, 38613, 38663, 38520, 38980, 39036, 38599, 39215, 38889, 38846, 38936, 38971, 38439, 38998, 38825, 38972, 38993, 39292, 38746, 38773, 38618, 38858, 38926, 38946, 38800, 38369, 38251, 38675, 38852, 39089, 38753, 39095, 38447, 38126, 38204, 38594, 39042, 40064, 39180, 39695, 39227, 39643, 39730, 39145, 38415, 39690, 39267, 38667, 38687, 39285, 39323, 39055, 39223, 39161, 39569, 39822, 39556, 39046, 39277, 39325, 39217, 39332, 39084, 40482, 40009, 39748, 39746, 40418, 39398, 39450, 39582, 40236, 39634, 40025, 40494, 39304, 38377, 38179, 38945, 40034, 39905, 39810, 40604, 39981, 40010, 38919, 39595, 39815, 38387, 39115, 38227, 38543, 38564, 38571, 39172, 38245, 38270, 39136, 38976, 38288, 38742, 39150, 37790, 39290, 39351, 38879, 38382, 38986, 38505, 39932, 39543, 39097, 39515, 39193, 39711, 38544, 38321, 39128, 39264, 38875, 38880, 39071, 39286, 39486, 38661, 38269, 39008, 39190, 38706, 39106, 38824, 38785, 39611, 38804, 39015, 39312, 39195, 39526, 40421, 41424, 39971, 39357, 38649, 38204, 38616, 40243, 40141, 40079, 39522, 39122, 39469, 38651, 38422, 38710, 39557, 40275, 39256, 40145, 40806, 40800, 40539, 40667, 40863, 40214, 40390, 41085, 40997, 41325, 40655, 40633, 40315, 38662, 39839, 40474, 40440, 39625, 39557, 39878, 39149, 37829, 39791, 39944, 39650, 39827, 39647, 39562, 39084, 39160, 39011, 39561, 40030, 39988, 40246, 39778, 39412, 39535, 39428],
