{
  "AcquisitionMatrixPE": 104,
  "AcquisitionNumber": 1,
  "AcquisitionTime": "16:01:12.365000",
  "BandwidthPerPixelPhaseEncode": 17.17,
  "BaseResolution": 104,
  "BodyPartExamined": "BRAIN",
  "CoilCombinationMethod": "Sum of Squares",
  "ConsistencyInfo": "N4_VE11C_LATEST_20160120",
  "ConversionSoftware": "dcm2niix",
  "ConversionSoftwareVersion": "v1.0.20220505",
  "DerivedVendorReportedEchoSpacing": 0.000560011,
  "DeviceSerialNumber": "167006",
  "DwellTime": 2.1e-06,
  "EchoTime": 0.037,
  "EchoTime1": 0.037,
  "EchoTime2": 0.001,
  "EchoTrainLength": 104,
  "EffectiveEchoSpacing": 0.000560011,
  "FlipAngle": 52,
  "HeudiconvVersion": "0.5.3.post811+g6206e14",
  "ImageComments": "Unaliased MB4/PE3/LB",
  "ImageOrientationPatientDICOM": [0.998782, -0.0490697, 0.0051772, 0.0476255, 0.93128, -0.361179],
  "ImageOrientationText": "Tra>Cor(-21.2)>Sag(-0.7)",
  "ImageType": [
    "ORIGINAL",
    "PRIMARY",
    "P",
    "MB",
    "ND",
    "MOSAIC",
    "PHASE"
],
  "ImagingFrequency": 123.259,
  "InPlanePhaseEncodingDirectionDICOM": "COL",
  "InstitutionAddress": "Chemin Queen-Mary 4565,Montreal,District,CA,H3W 1W5",
  "InstitutionName": "IUGM",
  "InstitutionalDepartmentName": "Department",
  "MRAcquisitionType": "2D",
  "MagneticFieldStrength": 3,
  "Manufacturer": "Siemens",
  "ManufacturersModelName": "Prisma_fit",
  "MatrixCoilMode": "SENSE",
  "Modality": "MR",
  "MultibandAccelerationFactor": 4,
  "PartialFourier": 1,
  "PatientPosition": "HFS",
  "PercentPhaseFOV": 100,
  "PercentSampling": 100,
  "PhaseEncodingDirection": "j",
  "PhaseEncodingSteps": 104,
  "PhaseResolution": 1,
  "PixelBandwidth": 2290,
  "ProcedureStepDescription": "games^mario3",
  "ProtocolName": "func_task-mario3_run-03",
  "PulseSequenceDetails": "%CustomerSeq%\\cmrr_mbep2d_bold",
  "ReceiveCoilActiveElements": "HC1-7;NC1,2",
  "ReceiveCoilName": "HeadNeck_64",
  "ReconMatrixPE": 104,
  "RepetitionTime": 1.49,
  "SAR": 0.0426591,
  "ScanOptions": "FS",
  "ScanningSequence": "EP",
  "SequenceName": "epfid2d1_104",
  "SequenceVariant": "SK\\SS",
  "SeriesDescription": "func_task-mario3_run-03",
  "SeriesNumber": 17,
  "ShimSetting": [623, -7253, -8836, 529, -3, -226, -107, -9],
  "SliceThickness": 2,
  "SliceTiming": [0, 0.785, 0.1, 0.8825, 0.1975, 0.98, 0.295, 1.08, 0.3925, 1.1775, 0.49, 1.275, 0.59, 1.3725, 0.6875, 0, 0.785, 0.1, 0.8825, 0.1975, 0.98, 0.295, 1.08, 0.3925, 1.1775, 0.49, 1.275, 0.59, 1.3725, 0.6875, 0, 0.785, 0.1, 0.8825, 0.1975, 0.98, 0.295, 1.08, 0.3925, 1.1775, 0.49, 1.275, 0.59, 1.3725, 0.6875, 0, 0.785, 0.1, 0.8825, 0.1975, 0.98, 0.295, 1.08, 0.3925, 1.1775, 0.49, 1.275, 0.59, 1.3725, 0.6875],
  "SoftwareVersions": "syngo MR E11",
  "SpacingBetweenSlices": 2,
  "StationName": "MRC35049",
  "TaskName": "mario3",
  "TotalReadoutTime": 0.0576811,
  "TxRefAmp": 230.874,
  "WipMemBlock": "177854bf-ca3b-4d4a-85db-9b2f57c5d965||Sequence: R017 ve11c/master r/75a17815+; Jun 28 2022 16:32:11 by eja",
  "dcmmeta_affine": [
    [-1.9975638389587402, 0.09525106847286224, -0.02580302394926548, 102.13784790039062],
    [0.0981394350528717, 1.8625593185424805, -0.7219703793525696, -68.12928771972656],
    [0.010354393161833286, 0.7223570942878723, 1.8649646043777466, -69.29969787597656],
    [0.0, 0.0, 0.0, 1.0]
],
  "dcmmeta_reorient_transform": [
    [0.0, -1.0, 0.0, 103.0],
    [1.0, 0.0, 0.0, 0.0],
    [0.0, 0.0, 1.0, 0.0],
    [0.0, 0.0, 0.0, 1.0]
],
  "dcmmeta_shape": [104, 104, 60, 335],
  "dcmmeta_slice_dim": 2,
  "dcmmeta_version": 0.6,
  "global": {
    "const": {
      "AcquisitionMatrix": [104, 0, 0, 104],
      "AngioFlag": "N",
      "BitsAllocated": 16,
      "BitsStored": 16,
      "BodyPartExamined": "BRAIN",
      "Columns": 832,
      "EchoNumbers": 1,
      "EchoTime": 37.0,
      "EchoTrainLength": 104,
      "FlipAngle": 52.0,
      "HighBit": 15,
      "ImageOrientationPatient": [0.99878193787872, -0.049069717767, 0.00517719668318, 0.04762553473236, 0.93127968757561, -0.3611785596496],
      "ImagePositionPatient": [-873.73335002377, -765.96318577129, 264.27207724059],
      "ImageType": [
        "ORIGINAL",
        "PRIMARY",
        "P",
        "MB",
        "ND",
        "MOSAIC"
],
      "ImagedNucleus": "1H",
      "ImagingFrequency": 123.258788,
      "InPlanePhaseEncodingDirection": "COL",
      "LargestImagePixelValue": 4095,
      "MRAcquisitionType": "2D",
      "MagneticFieldStrength": 3.0,
      "Manufacturer": "SIEMENS",
      "ManufacturerModelName": "Prisma_fit",
      "Modality": "MR",
      "NumberOfAverages": 1.0,
      "NumberOfPhaseEncodingSteps": 104,
      "PercentPhaseFieldOfView": 100.0,
      "PercentSampling": 100.0,
      "PerformedProcedureStepStartTime": "153756.547000",
      "PhotometricInterpretation": "MONOCHROME2",
      "PixelBandwidth": 2290.0,
      "PixelRepresentation": 0,
      "PixelSpacing": [2.0, 2.0],
      "ProtocolName": "func_task-mario3_run-03",
      "RepetitionTime": 1490.0,
      "RescaleIntercept": -4096.0,
      "RescaleSlope": 2.0,
      "RescaleType": "US",
      "Rows": 832,
      "SAR": 0.04265909815804,
      "SamplesPerPixel": 1,
      "ScanOptions": "FS",
      "ScanningSequence": "EP",
      "SequenceName": "epfid2d1_104",
      "SequenceVariant": [
        "SK",
        "SS"
],
      "SeriesDescription": "func_task-mario3_run-03",
      "SeriesNumber": 17,
      "SeriesTime": "160223.897000",
      "SliceLocation": -41.344811080508,
      "SliceThickness": 2.0,
      "SmallestImagePixelValue": 0,
      "SoftwareVersions": "syngo MR E11",
      "SpacingBetweenSlices": 2.0000000004442,
      "SpecificCharacterSet": "ISO_IR 100",
      "StudyID": "1",
      "StudyTime": "153756.476000",
      "TransmitCoilName": "Body",
      "VariableFlipAngleFlag": "N",
      "WindowCenterWidthExplanation": "Algo1",
      "dBdt": 0.0},
    "slices": {}
  },
  "time": {
    "samples": {
      "AcquisitionNumber": [1, 2, 3, 4, 5, 6, 7, 8, 9, 10, 11, 12, 13, 14, 15, 16, 17, 18, 19, 20, 21, 22, 23, 24, 25, 26, 27, 28, 29, 30, 31, 32, 33, 34, 35, 36, 37, 38, 39, 40, 41, 42, 43, 44, 45, 46, 47, 48, 49, 50, 51, 52, 53, 54, 55, 56, 57, 58, 59, 60, 61, 62, 63, 64, 65, 66, 67, 68, 69, 70, 71, 72, 73, 74, 75, 76, 77, 78, 79, 80, 81, 82, 83, 84, 85, 86, 87, 88, 89, 90, 91, 92, 93, 94, 95, 96, 97, 98, 99, 100, 101, 102, 103, 104, 105, 106, 107, 108, 109, 110, 111, 112, 113, 114, 115, 116, 117, 118, 119, 120, 121, 122, 123, 124, 125, 126, 127, 128, 129, 130, 131, 132, 133, 134, 135, 136, 137, 138, 139, 140, 141, 142, 143, 144, 145, 146, 147, 148, 149, 150, 151, 152, 153, 154, 155, 156, 157, 158, 159, 160, 161, 162, 163, 164, 165, 166, 167, 168, 169, 170, 171, 172, 173, 174, 175, 176, 177, 178, 179, 180, 181, 182, 183, 184, 185, 186, 187, 188, 189, 190, 191, 192, 193, 194, 195, 196, 197, 198, 199, 200, 201, 202, 203, 204, 205, 206, 207, 208, 209, 210, 211, 212, 213, 214, 215, 216, 217, 218, 219, 220, 221, 222, 223, 224, 225, 226, 227, 228, 229, 230, 231, 232, 233, 234, 235, 236, 237, 238, 239, 240, 241, 242, 243, 244, 245, 246, 247, 248, 249, 250, 251, 252, 253, 254, 255, 256, 257, 258, 259, 260, 261, 262, 263, 264, 265, 266, 267, 268, 269, 270, 271, 272, 273, 274, 275, 276, 277, 278, 279, 280, 281, 282, 283, 284, 285, 286, 287, 288, 289, 290, 291, 292, 293, 294, 295, 296, 297, 298, 299, 300, 301, 302, 303, 304, 305, 306, 307, 308, 309, 310, 311, 312, 313, 314, 315, 316, 317, 318, 319, 320, 321, 322, 323, 324, 325, 326, 327, 328, 329, 330, 331, 332, 333, 334, 335],
      "AcquisitionTime": ["160112.365000", "160113.855000", "160115.345000", "160116.835000", "160118.325000", "160119.815000", "160121.305000", "160122.795000", "160124.285000", "160125.775000", "160127.265000", "160128.755000", "160130.245000", "160131.735000", "160133.225000", "160134.715000", "160136.205000", "160137.695000", "160139.185000", "160140.675000", "160142.165000", "160143.655000", "160145.145000", "160146.635000", "160148.125000", "160149.615000", "160151.105000", "160152.595000", "160154.085000", "160155.575000", "160157.065000", "160158.555000", "160200.045000", "160201.535000", "160203.025000", "160204.515000", "160206.005000", "160207.495000", "160208.985000", "160210.475000", "160211.965000", "160213.455000", "160214.945000", "160216.435000", "160217.925000", "160219.415000", "160220.905000", "160222.395000", "160223.885000", "160225.375000", "160226.865000", "160228.355000", "160229.845000", "160231.335000", "160232.825000", "160234.315000", "160235.805000", "160237.295000", "160238.785000", "160240.275000", "160241.765000", "160243.255000", "160244.745000", "160246.235000", "160247.725000", "160249.215000", "160250.705000", "160252.195000", "160253.685000", "160255.175000", "160256.665000", "160258.155000", "160259.645000", "160301.135000", "160302.625000", "160304.115000", "160305.605000", "160307.095000", "160308.585000", "160310.075000", "160311.565000", "160313.055000", "160314.545000", "160316.035000", "160317.525000", "160319.015000", "160320.505000", "160321.995000", "160323.485000", "160324.975000", "160326.465000", "160327.955000", "160329.445000", "160330.935000", "160332.425000", "160333.915000", "160335.405000", "160336.895000", "160338.385000", "160339.875000", "160341.365000", "160342.855000", "160344.345000", "160345.835000", "160347.325000", "160348.815000", "160350.305000", "160351.795000", "160353.285000", "160354.775000", "160356.265000", "160357.755000", "160359.245000", "160400.735000", "160402.225000", "160403.715000", "160405.205000", "160406.695000", "160408.185000", "160409.675000", "160411.165000", "160412.655000", "160414.145000", "160415.635000", "160417.125000", "160418.615000", "160420.105000", "160421.595000", "160423.085000", "160424.575000", "160426.065000", "160427.555000", "160429.045000", "160430.535000", "160432.025000", "160433.515000", "160435.005000", "160436.495000", "160437.985000", "160439.475000", "160440.965000", "160442.455000", "160443.945000", "160445.435000", "160446.925000", "160448.415000", "160449.905000", "160451.395000", "160452.885000", "160454.375000", "160455.865000", "160457.355000", "160458.845000", "160500.335000", "160501.825000", "160503.315000", "160504.805000", "160506.295000", "160507.785000", "160509.275000", "160510.765000", "160512.255000", "160513.745000", "160515.235000", "160516.725000", "160518.215000", "160519.705000", "160521.195000", "160522.685000", "160524.175000", "160525.665000", "160527.155000", "160528.645000", "160530.135000", "160531.625000", "160533.115000", "160534.605000", "160536.095000", "160537.585000", "160539.075000", "160540.565000", "160542.055000", "160543.545000", "160545.035000", "160546.525000", "160548.015000", "160549.505000", "160550.995000", "160552.485000", "160553.975000", "160555.465000", "160556.955000", "160558.445000", "160559.935000", "160601.425000", "160602.915000", "160604.405000", "160605.895000", "160607.385000", "160608.875000", "160610.365000", "160611.855000", "160613.345000", "160614.835000", "160616.325000", "160617.815000", "160619.305000", "160620.795000", "160622.285000", "160623.775000", "160625.265000", "160626.755000", "160628.245000", "160629.735000", "160631.225000", "160632.715000", "160634.205000", "160635.695000", "160637.185000", "160638.675000", "160640.165000", "160641.655000", "160643.145000", "160644.635000", "160646.125000", "160647.615000", "160649.105000", "160650.595000", "160652.085000", "160653.575000", "160655.065000", "160656.555000", "160658.045000", "160659.535000", "160701.025000", "160702.515000", "160704.005000", "160705.495000", "160706.985000", "160708.475000", "160709.965000", "160711.455000", "160712.945000", "160714.435000", "160715.925000", "160717.415000", "160718.905000", "160720.395000", "160721.885000", "160723.375000", "160724.865000", "160726.355000", "160727.845000", "160729.335000", "160730.825000", "160732.315000", "160733.805000", "160735.295000", "160736.785000", "160738.275000", "160739.765000", "160741.255000", "160742.745000", "160744.235000", "160745.725000", "160747.215000", "160748.705000", "160750.195000", "160751.685000", "160753.175000", "160754.665000", "160756.155000", "160757.645000", "160759.135000", "160800.625000", "160802.115000", "160803.605000", "160805.095000", "160806.585000", "160808.075000", "160809.565000", "160811.055000", "160812.545000", "160814.035000", "160815.525000", "160817.015000", "160818.505000", "160819.995000", "160821.485000", "160822.975000", "160824.465000", "160825.955000", "160827.445000", "160828.935000", "160830.425000", "160831.915000", "160833.405000", "160834.895000", "160836.385000", "160837.875000", "160839.365000", "160840.855000", "160842.345000", "160843.835000", "160845.325000", "160846.815000", "160848.305000", "160849.795000", "160851.285000", "160852.775000", "160854.265000", "160855.755000", "160857.245000", "160858.735000", "160900.225000", "160901.715000", "160903.205000", "160904.695000", "160906.185000", "160907.675000", "160909.165000", "160910.655000", "160912.145000", "160913.635000", "160915.125000", "160916.615000", "160918.105000", "160919.595000", "160921.085000", "160922.575000", "160924.065000", "160925.555000", "160927.045000", "160928.535000", "160930.025000"],
      "ContentTime": ["160223.899000", "160223.902000", "160223.904000", "160223.907000", "160223.909000", "160223.912000", "160223.914000", "160223.917000", "160223.919000", "160223.921000", "160223.924000", "160223.926000", "160223.929000", "160223.941000", "160223.943000", "160223.946000", "160223.948000", "160223.951000", "160223.953000", "160223.956000", "160223.958000", "160223.961000", "160223.963000", "160223.966000", "160243.868000", "160243.870000", "160243.873000", "160243.875000", "160243.878000", "160243.880000", "160243.889000", "160243.891000", "160243.894000", "160243.896000", "160243.899000", "160243.901000", "160243.904000", "160243.906000", "160243.909000", "160243.911000", "160243.914000", "160243.916000", "160243.919000", "160243.921000", "160303.888000", "160303.891000", "160303.893000", "160303.896000", "160303.898000", "160303.901000", "160303.903000", "160303.906000", "160303.908000", "160303.911000", "160303.913000", "160303.916000", "160303.918000", "160303.928000", "160303.931000", "160303.933000", "160303.936000", "160303.938000", "160303.941000", "160303.943000", "160323.859000", "160323.861000", "160323.864000", "160323.866000", "160323.869000", "160323.871000", "160323.874000", "160323.876000", "160323.879000", "160323.881000", "160323.884000", "160323.886000", "160323.889000", "160323.891000", "160323.894000", "160323.896000", "160323.899000", "160323.901000", "160323.904000", "160323.906000", "160323.908000", "160403.908000", "160403.911000", "160403.913000", "160403.916000", "160403.918000", "160403.921000", "160403.923000", "160403.926000", "160403.928000", "160403.931000", "160403.933000", "160403.936000", "160403.938000", "160403.940000", "160403.943000", "160403.945000", "160403.948000", "160403.950000", "160403.953000", "160403.955000", "160403.958000", "160403.960000", "160403.963000", "160403.965000", "160403.968000", "160403.970000", "160403.973000", "160403.975000", "160403.978000", "160443.881000", "160443.884000", "160443.886000", "160443.889000", "160443.891000", "160443.893000", "160443.896000", "160443.898000", "160443.901000", "160443.903000", "160443.906000", "160443.908000", "160443.911000", "160443.913000", "160443.916000", "160443.918000", "160443.921000", "160443.923000", "160443.926000", "160443.928000", "160443.930000", "160443.933000", "160443.935000", "160443.938000", "160443.940000", "160443.943000", "160443.945000", "160523.900000", "160523.903000", "160523.905000", "160523.908000", "160523.910000", "160523.913000", "160523.915000", "160523.917000", "160523.920000", "160523.923000", "160523.925000", "160523.928000", "160523.930000", "160523.932000", "160523.935000", "160523.937000", "160523.940000", "160523.942000", "160523.945000", "160523.947000", "160523.950000", "160523.952000", "160523.955000", "160523.957000", "160523.960000", "160523.962000", "160523.965000", "160603.880000", "160603.882000", "160603.885000", "160603.887000", "160603.890000", "160603.892000", "160603.895000", "160603.897000", "160603.900000", "160603.902000", "160603.905000", "160603.907000", "160603.910000", "160603.912000", "160603.915000", "160603.917000", "160603.920000", "160603.922000", "160603.925000", "160603.927000", "160603.930000", "160603.932000", "160603.935000", "160603.937000", "160603.940000", "160603.942000", "160603.948000", "160643.882000", "160643.884000", "160643.887000", "160643.890000", "160643.892000", "160643.895000", "160643.897000", "160643.899000", "160643.902000", "160643.904000", "160643.907000", "160643.909000", "160643.912000", "160643.914000", "160643.917000", "160643.919000", "160643.922000", "160643.924000", "160643.927000", "160643.929000", "160643.932000", "160643.934000", "160643.937000", "160643.939000", "160643.942000", "160643.944000", "160723.884000", "160723.887000", "160723.889000", "160723.892000", "160723.894000", "160723.897000", "160723.899000", "160723.902000", "160723.904000", "160723.907000", "160723.909000", "160723.912000", "160723.914000", "160723.917000", "160723.919000", "160723.922000", "160723.924000", "160723.927000", "160723.930000", "160723.932000", "160723.935000", "160723.937000", "160723.940000", "160723.942000", "160723.945000", "160723.947000", "160723.950000", "160803.897000", "160803.900000", "160803.902000", "160803.905000", "160803.907000", "160803.910000", "160803.912000", "160803.915000", "160803.917000", "160803.920000", "160803.922000", "160803.925000", "160803.927000", "160803.930000", "160803.932000", "160803.935000", "160803.937000", "160803.940000", "160803.942000", "160803.945000", "160803.947000", "160803.950000", "160803.952000", "160803.955000", "160803.957000", "160803.960000", "160803.962000", "160843.889000", "160843.892000", "160843.894000", "160843.897000", "160843.899000", "160843.907000", "160843.910000", "160843.912000", "160843.915000", "160843.917000", "160843.920000", "160843.922000", "160843.925000", "160843.927000", "160843.930000", "160843.932000", "160843.935000", "160843.937000", "160843.939000", "160843.942000", "160843.944000", "160843.947000", "160843.949000", "160843.952000", "160843.954000", "160843.957000", "160843.959000", "160923.880000", "160923.882000", "160923.885000", "160923.887000", "160923.890000", "160923.893000", "160923.895000", "160923.898000", "160923.900000", "160923.902000", "160923.905000", "160923.907000", "160923.910000", "160923.912000", "160923.915000", "160923.917000", "160923.920000", "160923.922000", "160923.925000", "160923.927000", "160923.930000", "160923.932000", "160923.935000", "160923.937000", "160923.940000", "160923.942000", "160923.945000", "160932.725000", "160932.728000", "160932.730000", "160932.733000", "160932.736000", "160932.738000"],
      "InstanceCreationTime": ["160223.899000", "160223.902000", "160223.904000", "160223.907000", "160223.909000", "160223.912000", "160223.914000", "160223.917000", "160223.919000", "160223.921000", "160223.924000", "160223.926000", "160223.929000", "160223.941000", "160223.943000", "160223.946000", "160223.948000", "160223.951000", "160223.953000", "160223.956000", "160223.958000", "160223.961000", "160223.963000", "160223.966000", "160243.868000", "160243.870000", "160243.873000", "160243.875000", "160243.878000", "160243.880000", "160243.889000", "160243.891000", "160243.894000", "160243.896000", "160243.899000", "160243.901000", "160243.904000", "160243.906000", "160243.909000", "160243.911000", "160243.914000", "160243.916000", "160243.919000", "160243.921000", "160303.888000", "160303.891000", "160303.893000", "160303.896000", "160303.898000", "160303.901000", "160303.903000", "160303.906000", "160303.908000", "160303.911000", "160303.913000", "160303.916000", "160303.918000", "160303.928000", "160303.931000", "160303.933000", "160303.936000", "160303.938000", "160303.941000", "160303.943000", "160323.859000", "160323.861000", "160323.864000", "160323.866000", "160323.869000", "160323.871000", "160323.874000", "160323.876000", "160323.879000", "160323.881000", "160323.884000", "160323.886000", "160323.889000", "160323.891000", "160323.894000", "160323.896000", "160323.899000", "160323.901000", "160323.904000", "160323.906000", "160323.908000", "160403.908000", "160403.911000", "160403.913000", "160403.916000", "160403.918000", "160403.921000", "160403.923000", "160403.926000", "160403.928000", "160403.931000", "160403.933000", "160403.936000", "160403.938000", "160403.940000", "160403.943000", "160403.945000", "160403.948000", "160403.950000", "160403.953000", "160403.955000", "160403.958000", "160403.960000", "160403.963000", "160403.965000", "160403.968000", "160403.970000", "160403.973000", "160403.975000", "160403.978000", "160443.881000", "160443.884000", "160443.886000", "160443.889000", "160443.891000", "160443.893000", "160443.896000", "160443.898000", "160443.901000", "160443.903000", "160443.906000", "160443.908000", "160443.911000", "160443.913000", "160443.916000", "160443.918000", "160443.921000", "160443.923000", "160443.926000", "160443.928000", "160443.930000", "160443.933000", "160443.935000", "160443.938000", "160443.940000", "160443.943000", "160443.945000", "160523.900000", "160523.903000", "160523.905000", "160523.908000", "160523.910000", "160523.913000", "160523.915000", "160523.917000", "160523.920000", "160523.923000", "160523.925000", "160523.928000", "160523.930000", "160523.932000", "160523.935000", "160523.937000", "160523.940000", "160523.942000", "160523.945000", "160523.947000", "160523.950000", "160523.952000", "160523.955000", "160523.957000", "160523.960000", "160523.962000", "160523.965000", "160603.880000", "160603.882000", "160603.885000", "160603.887000", "160603.890000", "160603.892000", "160603.895000", "160603.897000", "160603.900000", "160603.902000", "160603.905000", "160603.907000", "160603.910000", "160603.912000", "160603.915000", "160603.917000", "160603.920000", "160603.922000", "160603.925000", "160603.927000", "160603.930000", "160603.932000", "160603.935000", "160603.937000", "160603.940000", "160603.942000", "160603.948000", "160643.882000", "160643.884000", "160643.887000", "160643.890000", "160643.892000", "160643.895000", "160643.897000", "160643.899000", "160643.902000", "160643.904000", "160643.907000", "160643.909000", "160643.912000", "160643.914000", "160643.917000", "160643.919000", "160643.922000", "160643.924000", "160643.927000", "160643.929000", "160643.932000", "160643.934000", "160643.937000", "160643.939000", "160643.942000", "160643.944000", "160723.884000", "160723.887000", "160723.889000", "160723.892000", "160723.894000", "160723.897000", "160723.899000", "160723.902000", "160723.904000", "160723.907000", "160723.909000", "160723.912000", "160723.914000", "160723.917000", "160723.919000", "160723.922000", "160723.924000", "160723.927000", "160723.930000", "160723.932000", "160723.935000", "160723.937000", "160723.940000", "160723.942000", "160723.945000", "160723.947000", "160723.950000", "160803.897000", "160803.900000", "160803.902000", "160803.905000", "160803.907000", "160803.910000", "160803.912000", "160803.915000", "160803.917000", "160803.920000", "160803.922000", "160803.925000", "160803.927000", "160803.930000", "160803.932000", "160803.935000", "160803.937000", "160803.940000", "160803.942000", "160803.945000", "160803.947000", "160803.950000", "160803.952000", "160803.955000", "160803.957000", "160803.960000", "160803.962000", "160843.889000", "160843.892000", "160843.894000", "160843.897000", "160843.899000", "160843.907000", "160843.910000", "160843.912000", "160843.915000", "160843.917000", "160843.920000", "160843.922000", "160843.925000", "160843.927000", "160843.930000", "160843.932000", "160843.935000", "160843.937000", "160843.939000", "160843.942000", "160843.944000", "160843.947000", "160843.949000", "160843.952000", "160843.954000", "160843.957000", "160843.959000", "160923.880000", "160923.882000", "160923.885000", "160923.887000", "160923.890000", "160923.893000", "160923.895000", "160923.898000", "160923.900000", "160923.902000", "160923.905000", "160923.907000", "160923.910000", "160923.912000", "160923.915000", "160923.917000", "160923.920000", "160923.922000", "160923.925000", "160923.927000", "160923.930000", "160923.932000", "160923.935000", "160923.937000", "160923.940000", "160923.942000", "160923.945000", "160932.725000", "160932.728000", "160932.730000", "160932.733000", "160932.736000", "160932.738000"],
      "InstanceNumber": [1, 2, 3, 4, 5, 6, 7, 8, 9, 10, 11, 12, 13, 14, 15, 16, 17, 18, 19, 20, 21, 22, 23, 24, 25, 26, 27, 28, 29, 30, 31, 32, 33, 34, 35, 36, 37, 38, 39, 40, 41, 42, 43, 44, 45, 46, 47, 48, 49, 50, 51, 52, 53, 54, 55, 56, 57, 58, 59, 60, 61, 62, 63, 64, 65, 66, 67, 68, 69, 70, 71, 72, 73, 74, 75, 76, 77, 78, 79, 80, 81, 82, 83, 84, 85, 86, 87, 88, 89, 90, 91, 92, 93, 94, 95, 96, 97, 98, 99, 100, 101, 102, 103, 104, 105, 106, 107, 108, 109, 110, 111, 112, 113, 114, 115, 116, 117, 118, 119, 120, 121, 122, 123, 124, 125, 126, 127, 128, 129, 130, 131, 132, 133, 134, 135, 136, 137, 138, 139, 140, 141, 142, 143, 144, 145, 146, 147, 148, 149, 150, 151, 152, 153, 154, 155, 156, 157, 158, 159, 160, 161, 162, 163, 164, 165, 166, 167, 168, 169, 170, 171, 172, 173, 174, 175, 176, 177, 178, 179, 180, 181, 182, 183, 184, 185, 186, 187, 188, 189, 190, 191, 192, 193, 194, 195, 196, 197, 198, 199, 200, 201, 202, 203, 204, 205, 206, 207, 208, 209, 210, 211, 212, 213, 214, 215, 216, 217, 218, 219, 220, 221, 222, 223, 224, 225, 226, 227, 228, 229, 230, 231, 232, 233, 234, 235, 236, 237, 238, 239, 240, 241, 242, 243, 244, 245, 246, 247, 248, 249, 250, 251, 252, 253, 254, 255, 256, 257, 258, 259, 260, 261, 262, 263, 264, 265, 266, 267, 268, 269, 270, 271, 272, 273, 274, 275, 276, 277, 278, 279, 280, 281, 282, 283, 284, 285, 286, 287, 288, 289, 290, 291, 292, 293, 294, 295, 296, 297, 298, 299, 300, 301, 302, 303, 304, 305, 306, 307, 308, 309, 310, 311, 312, 313, 314, 315, 316, 317, 318, 319, 320, 321, 322, 323, 324, 325, 326, 327, 328, 329, 330, 331, 332, 333, 334, 335],
      "WindowCenter": [4788.0, 4790.0, 4788.0, 4792.0, 4786.0, 4786.0, 4784.0, 4782.0, 4790.0, 4792.0, 4788.0, 4790.0, 4788.0, 4790.0, 4788.0, 4788.0, 4790.0, 4788.0, 4786.0, 4788.0, 4784.0, 4794.0, 4790.0, 4790.0, 4788.0, 4790.0, 4786.0, 4786.0, 4784.0, 4784.0, 4788.0, 4788.0, 4788.0, 4786.0, 4794.0, 4822.0, 4782.0, 4788.0, 4782.0, 4784.0, 4786.0, 4792.0, 4788.0, 4788.0, 4790.0, 4788.0, 4782.0, 4784.0, 4786.0, 4784.0, 4784.0, 4790.0, 4788.0, 4784.0, 4786.0, 4784.0, 4790.0, 4784.0, 4788.0, 4786.0, 4788.0, 4782.0, 4786.0, 4784.0, 4788.0, 4788.0, 4788.0, 4786.0, 4814.0, 4790.0, 4826.0, 4828.0, 4788.0, 4780.0, 4782.0, 4808.0, 4784.0, 4786.0, 4790.0, 4796.0, 4790.0, 4820.0, 4818.0, 4786.0, 4808.0, 4806.0, 4802.0, 4804.0, 4782.0, 4786.0, 4788.0, 4792.0, 4796.0, 4794.0, 4792.0, 4784.0, 4778.0, 4780.0, 4806.0, 4788.0, 4786.0, 4788.0, 4788.0, 4788.0, 4798.0, 4786.0, 4780.0, 4804.0, 4804.0, 4782.0, 4782.0, 4788.0, 4790.0, 4790.0, 4788.0, 4784.0, 4786.0, 4784.0, 4784.0, 4790.0, 4788.0, 4784.0, 4808.0, 4786.0, 4784.0, 4784.0, 4780.0, 4782.0, 4784.0, 4784.0, 4788.0, 4784.0, 4786.0, 4782.0, 4780.0, 4790.0, 4790.0, 4784.0, 4782.0, 4784.0, 4784.0, 4786.0, 4782.0, 4780.0, 4788.0, 4788.0, 4794.0, 4782.0, 4784.0, 4782.0, 4794.0, 4796.0, 4786.0, 4784.0, 4778.0, 4780.0, 4780.0, 4786.0, 4788.0, 4784.0, 4788.0, 4788.0, 4792.0, 4786.0, 4782.0, 4782.0, 4780.0, 4782.0, 4786.0, 4788.0, 4788.0, 4784.0, 4798.0, 4800.0, 4782.0, 4784.0, 4806.0, 4806.0, 4780.0, 4786.0, 4786.0, 4786.0, 4786.0, 4786.0, 4784.0, 4784.0, 4788.0, 4782.0, 4784.0, 4786.0, 4782.0, 4782.0, 4788.0, 4780.0, 4790.0, 4792.0, 4788.0, 4782.0, 4782.0, 4786.0, 4778.0, 4782.0, 4786.0, 4780.0, 4784.0, 4780.0, 4780.0, 4786.0, 4786.0, 4784.0, 4792.0, 4824.0, 4784.0, 4780.0, 4776.0, 4804.0, 4780.0, 4782.0, 4786.0, 4790.0, 4796.0, 4790.0, 4788.0, 4780.0, 4778.0, 4784.0, 4782.0, 4782.0, 4784.0, 4782.0, 4786.0, 4786.0, 4788.0, 4784.0, 4778.0, 4780.0, 4782.0, 4782.0, 4782.0, 4780.0, 4786.0, 4782.0, 4788.0, 4784.0, 4784.0, 4784.0, 4782.0, 4782.0, 4782.0, 4786.0, 4784.0, 4784.0, 4786.0, 4782.0, 4786.0, 4782.0, 4788.0, 4784.0, 4780.0, 4780.0, 4780.0, 4784.0, 4786.0, 4782.0, 4788.0, 4784.0, 4784.0, 4784.0, 4784.0, 4784.0, 4782.0, 4786.0, 4782.0, 4784.0, 4786.0, 4794.0, 4784.0, 4782.0, 4782.0, 4784.0, 4778.0, 4786.0, 4798.0, 4792.0, 4788.0, 4786.0, 4778.0, 4782.0, 4782.0, 4784.0, 4784.0, 4788.0, 4824.0, 4856.0, 4820.0, 4786.0, 4808.0, 4808.0, 4784.0, 4808.0, 4788.0, 4792.0, 4794.0, 4792.0, 4794.0, 4788.0, 4790.0, 4786.0, 4786.0, 4808.0, 4804.0, 4784.0, 4788.0, 4784.0, 4792.0, 4790.0, 4786.0, 4782.0, 4784.0, 4790.0, 4792.0, 4796.0, 4792.0, 4810.0, 4808.0, 4784.0, 4786.0, 4796.0, 4790.0, 4786.0, 4792.0, 4786.0, 4788.0, 4790.0, 4790.0],
