{
  "AcquisitionMatrixPE": 104,
  "AcquisitionNumber": 1,
  "AcquisitionTime": "15:42:8.502500",
  "BandwidthPerPixelPhaseEncode": 17.17,
  "BaseResolution": 104,
  "BodyPartExamined": "BRAIN",
  "CoilCombinationMethod": "Sum of Squares",
  "ConsistencyInfo": "N4_VE11C_LATEST_20160120",
  "ConversionSoftware": "dcm2niix",
  "ConversionSoftwareVersion": "v1.0.20220505",
  "DerivedVendorReportedEchoSpacing": 0.000560011,
  "DeviceSerialNumber": "167006",
  "DwellTime": 2.1e-06,
  "EchoTime": 0.037,
  "EchoTime1": 0.037,
  "EchoTime2": 0.001,
  "EchoTrainLength": 104,
  "EffectiveEchoSpacing": 0.000560011,
  "FlipAngle": 52,
  "HeudiconvVersion": "0.5.3.post811+g6206e14",
  "ImageComments": "Unaliased MB4/PE3/LB",
  "ImageOrientationPatientDICOM": [0.998782, -0.0490697, 0.0051772, 0.0476255, 0.93128, -0.361179],
  "ImageOrientationText": "Tra>Cor(-21.2)>Sag(-0.7)",
  "ImageType": [
    "ORIGINAL",
    "PRIMARY",
    "P",
    "MB",
    "ND",
    "MOSAIC",
    "PHASE"
],
  "ImagingFrequency": 123.259,
  "InPlanePhaseEncodingDirectionDICOM": "COL",
  "InstitutionAddress": "Chemin Queen-Mary 4565,Montreal,District,CA,H3W 1W5",
  "InstitutionName": "IUGM",
  "InstitutionalDepartmentName": "Department",
  "MRAcquisitionType": "2D",
  "MagneticFieldStrength": 3,
  "Manufacturer": "Siemens",
  "ManufacturersModelName": "Prisma_fit",
  "MatrixCoilMode": "SENSE",
  "Modality": "MR",
  "MultibandAccelerationFactor": 4,
  "PartialFourier": 1,
  "PatientPosition": "HFS",
  "PercentPhaseFOV": 100,
  "PercentSampling": 100,
  "PhaseEncodingDirection": "j",
  "PhaseEncodingSteps": 104,
  "PhaseResolution": 1,
  "PixelBandwidth": 2290,
  "ProcedureStepDescription": "games^mario3",
  "ProtocolName": "func_task-mario3_run-01",
  "PulseSequenceDetails": "%CustomerSeq%\\cmrr_mbep2d_bold",
  "ReceiveCoilActiveElements": "HC1-7;NC1,2",
  "ReceiveCoilName": "HeadNeck_64",
  "ReconMatrixPE": 104,
  "RepetitionTime": 1.49,
  "SAR": 0.0426591,
  "ScanOptions": "FS",
  "ScanningSequence": "EP",
  "SequenceName": "epfid2d1_104",
  "SequenceVariant": "SK\\SS",
  "SeriesDescription": "func_task-mario3_run-01",
  "SeriesNumber": 11,
  "ShimSetting": [623, -7253, -8836, 529, -3, -226, -107, -9],
  "SliceThickness": 2,
  "SliceTiming": [0, 0.785, 0.0975, 0.8825, 0.195, 0.98, 0.295, 1.0775, 0.3925, 1.175, 0.49, 1.275, 0.5875, 1.3725, 0.685, 0, 0.785, 0.0975, 0.8825, 0.195, 0.98, 0.295, 1.0775, 0.3925, 1.175, 0.49, 1.275, 0.5875, 1.3725, 0.685, 0, 0.785, 0.0975, 0.8825, 0.195, 0.98, 0.295, 1.0775, 0.3925, 1.175, 0.49, 1.275, 0.5875, 1.3725, 0.685, 0, 0.785, 0.0975, 0.8825, 0.195, 0.98, 0.295, 1.0775, 0.3925, 1.175, 0.49, 1.275, 0.5875, 1.3725, 0.685],
  "SoftwareVersions": "syngo MR E11",
  "SpacingBetweenSlices": 2,
  "StationName": "MRC35049",
  "TaskName": "mario3",
  "TotalReadoutTime": 0.0576811,
  "TxRefAmp": 230.874,
  "WipMemBlock": "9ea76d6f-fa78-4e60-8f69-4ce5e5952af4||Sequence: R017 ve11c/master r/75a17815+; Jun 28 2022 16:32:11 by eja",
  "dcmmeta_affine": [
    [-1.9975638389587402, 0.09525106847286224, -0.02580302394926548, 102.13784790039062],
    [0.0981394350528717, 1.8625593185424805, -0.7219703793525696, -68.12928771972656],
    [0.010354393161833286, 0.7223570942878723, 1.8649646043777466, -69.29969787597656],
    [0.0, 0.0, 0.0, 1.0]
],
  "dcmmeta_reorient_transform": [
    [0.0, -1.0, 0.0, 103.0],
    [1.0, 0.0, 0.0, 0.0],
    [0.0, 0.0, 1.0, 0.0],
    [0.0, 0.0, 0.0, 1.0]
],
  "dcmmeta_shape": [104, 104, 60, 330],
  "dcmmeta_slice_dim": 2,
  "dcmmeta_version": 0.6,
  "global": {
    "const": {
      "AcquisitionMatrix": [104, 0, 0, 104],
      "AngioFlag": "N",
      "BitsAllocated": 16,
      "BitsStored": 16,
      "BodyPartExamined": "BRAIN",
      "Columns": 832,
      "EchoNumbers": 1,
      "EchoTime": 37.0,
      "EchoTrainLength": 104,
      "FlipAngle": 52.0,
      "HighBit": 15,
      "ImageOrientationPatient": [0.99878193787872, -0.049069717767, 0.00517719668318, 0.04762553473236, 0.93127968757561, -0.3611785596496],
      "ImagePositionPatient": [-873.73335002377, -765.96318577129, 264.27207724059],
      "ImageType": [
        "ORIGINAL",
        "PRIMARY",
        "P",
        "MB",
        "ND",
        "MOSAIC"
],
      "ImagedNucleus": "1H",
      "ImagingFrequency": 123.258778,
      "InPlanePhaseEncodingDirection": "COL",
      "LargestImagePixelValue": 4095,
      "MRAcquisitionType": "2D",
      "MagneticFieldStrength": 3.0,
      "Manufacturer": "SIEMENS",
      "ManufacturerModelName": "Prisma_fit",
      "Modality": "MR",
      "NumberOfAverages": 1.0,
      "NumberOfPhaseEncodingSteps": 104,
      "PercentPhaseFieldOfView": 100.0,
      "PercentSampling": 100.0,
      "PerformedProcedureStepStartTime": "153756.547000",
      "PhotometricInterpretation": "MONOCHROME2",
      "PixelBandwidth": 2290.0,
      "PixelRepresentation": 0,
      "PixelSpacing": [2.0, 2.0],
      "ProtocolName": "func_task-mario3_run-01",
      "RepetitionTime": 1490.0,
      "RescaleIntercept": -4096.0,
      "RescaleSlope": 2.0,
      "RescaleType": "US",
      "Rows": 832,
      "SAR": 0.04265909815804,
      "SamplesPerPixel": 1,
      "ScanOptions": "FS",
      "ScanningSequence": "EP",
      "SequenceName": "epfid2d1_104",
      "SequenceVariant": [
        "SK",
        "SS"
],
      "SeriesDescription": "func_task-mario3_run-01",
      "SeriesNumber": 11,
      "SeriesTime": "154319.889000",
      "SliceLocation": -41.344811080508,
      "SliceThickness": 2.0,
      "SmallestImagePixelValue": 0,
      "SoftwareVersions": "syngo MR E11",
      "SpacingBetweenSlices": 2.0000000004442,
      "SpecificCharacterSet": "ISO_IR 100",
      "StudyID": "1",
      "StudyTime": "153756.476000",
      "TransmitCoilName": "Body",
      "VariableFlipAngleFlag": "N",
      "WindowCenterWidthExplanation": "Algo1",
      "dBdt": 0.0},
    "slices": {}
  },
  "time": {
    "samples": {
      "AcquisitionNumber": [1, 2, 3, 4, 5, 6, 7, 8, 9, 10, 11, 12, 13, 14, 15, 16, 17, 18, 19, 20, 21, 22, 23, 24, 25, 26, 27, 28, 29, 30, 31, 32, 33, 34, 35, 36, 37, 38, 39, 40, 41, 42, 43, 44, 45, 46, 47, 48, 49, 50, 51, 52, 53, 54, 55, 56, 57, 58, 59, 60, 61, 62, 63, 64, 65, 66, 67, 68, 69, 70, 71, 72, 73, 74, 75, 76, 77, 78, 79, 80, 81, 82, 83, 84, 85, 86, 87, 88, 89, 90, 91, 92, 93, 94, 95, 96, 97, 98, 99, 100, 101, 102, 103, 104, 105, 106, 107, 108, 109, 110, 111, 112, 113, 114, 115, 116, 117, 118, 119, 120, 121, 122, 123, 124, 125, 126, 127, 128, 129, 130, 131, 132, 133, 134, 135, 136, 137, 138, 139, 140, 141, 142, 143, 144, 145, 146, 147, 148, 149, 150, 151, 152, 153, 154, 155, 156, 157, 158, 159, 160, 161, 162, 163, 164, 165, 166, 167, 168, 169, 170, 171, 172, 173, 174, 175, 176, 177, 178, 179, 180, 181, 182, 183, 184, 185, 186, 187, 188, 189, 190, 191, 192, 193, 194, 195, 196, 197, 198, 199, 200, 201, 202, 203, 204, 205, 206, 207, 208, 209, 210, 211, 212, 213, 214, 215, 216, 217, 218, 219, 220, 221, 222, 223, 224, 225, 226, 227, 228, 229, 230, 231, 232, 233, 234, 235, 236, 237, 238, 239, 240, 241, 242, 243, 244, 245, 246, 247, 248, 249, 250, 251, 252, 253, 254, 255, 256, 257, 258, 259, 260, 261, 262, 263, 264, 265, 266, 267, 268, 269, 270, 271, 272, 273, 274, 275, 276, 277, 278, 279, 280, 281, 282, 283, 284, 285, 286, 287, 288, 289, 290, 291, 292, 293, 294, 295, 296, 297, 298, 299, 300, 301, 302, 303, 304, 305, 306, 307, 308, 309, 310, 311, 312, 313, 314, 315, 316, 317, 318, 319, 320, 321, 322, 323, 324, 325, 326, 327, 328, 329, 330],
      "AcquisitionTime": ["154208.502500", "154209.992500", "154211.482500", "154212.972500", "154214.462500", "154215.952500", "154217.442500", "154218.932500", "154220.422500", "154221.912500", "154223.402500", "154224.892500", "154226.382500", "154227.872500", "154229.362500", "154230.852500", "154232.342500", "154233.832500", "154235.322500", "154236.812500", "154238.302500", "154239.792500", "154241.282500", "154242.772500", "154244.262500", "154245.752500", "154247.242500", "154248.732500", "154250.222500", "154251.712500", "154253.202500", "154254.692500", "154256.182500", "154257.672500", "154259.162500", "154300.652500", "154302.142500", "154303.632500", "154305.122500", "154306.612500", "154308.102500", "154309.592500", "154311.082500", "154312.572500", "154314.062500", "154315.552500", "154317.042500", "154318.532500", "154320.022500", "154321.512500", "154323.002500", "154324.492500", "154325.982500", "154327.472500", "154328.962500", "154330.452500", "154331.942500", "154333.432500", "154334.922500", "154336.412500", "154337.902500", "154339.392500", "154340.882500", "154342.372500", "154343.862500", "154345.352500", "154346.842500", "154348.332500", "154349.822500", "154351.312500", "154352.802500", "154354.292500", "154355.782500", "154357.272500", "154358.762500", "154400.252500", "154401.742500", "154403.232500", "154404.722500", "154406.212500", "154407.702500", "154409.192500", "154410.682500", "154412.172500", "154413.662500", "154415.152500", "154416.642500", "154418.132500", "154419.622500", "154421.112500", "154422.602500", "154424.092500", "154425.582500", "154427.072500", "154428.562500", "154430.052500", "154431.542500", "154433.032500", "154434.522500", "154436.012500", "154437.502500", "154438.992500", "154440.482500", "154441.972500", "154443.462500", "154444.952500", "154446.442500", "154447.932500", "154449.422500", "154450.912500", "154452.402500", "154453.892500", "154455.382500", "154456.872500", "154458.362500", "154459.852500", "154501.342500", "154502.832500", "154504.322500", "154505.812500", "154507.302500", "154508.792500", "154510.282500", "154511.772500", "154513.262500", "154514.752500", "154516.242500", "154517.732500", "154519.222500", "154520.712500", "154522.202500", "154523.692500", "154525.182500", "154526.672500", "154528.162500", "154529.652500", "154531.142500", "154532.632500", "154534.122500", "154535.612500", "154537.102500", "154538.592500", "154540.082500", "154541.572500", "154543.062500", "154544.552500", "154546.042500", "154547.532500", "154549.022500", "154550.512500", "154552.002500", "154553.492500", "154554.982500", "154556.472500", "154557.962500", "154559.452500", "154600.942500", "154602.432500", "154603.922500", "154605.412500", "154606.902500", "154608.392500", "154609.882500", "154611.372500", "154612.862500", "154614.352500", "154615.842500", "154617.332500", "154618.822500", "154620.312500", "154621.802500", "154623.292500", "154624.782500", "154626.272500", "154627.762500", "154629.252500", "154630.742500", "154632.232500", "154633.722500", "154635.212500", "154636.702500", "154638.192500", "154639.682500", "154641.172500", "154642.662500", "154644.152500", "154645.642500", "154647.132500", "154648.622500", "154650.112500", "154651.602500", "154653.092500", "154654.582500", "154656.072500", "154657.562500", "154659.052500", "154700.542500", "154702.032500", "154703.522500", "154705.012500", "154706.502500", "154707.992500", "154709.482500", "154710.972500", "154712.462500", "154713.952500", "154715.442500", "154716.932500", "154718.422500", "154719.912500", "154721.402500", "154722.892500", "154724.382500", "154725.872500", "154727.362500", "154728.852500", "154730.342500", "154731.832500", "154733.322500", "154734.812500", "154736.302500", "154737.792500", "154739.282500", "154740.772500", "154742.262500", "154743.752500", "154745.242500", "154746.732500", "154748.222500", "154749.712500", "154751.202500", "154752.692500", "154754.182500", "154755.672500", "154757.162500", "154758.652500", "154800.142500", "154801.632500", "154803.122500", "154804.612500", "154806.102500", "154807.592500", "154809.082500", "154810.572500", "154812.062500", "154813.552500", "154815.042500", "154816.532500", "154818.022500", "154819.512500", "154821.002500", "154822.492500", "154823.982500", "154825.472500", "154826.962500", "154828.452500", "154829.942500", "154831.432500", "154832.922500", "154834.412500", "154835.902500", "154837.392500", "154838.882500", "154840.372500", "154841.862500", "154843.352500", "154844.842500", "154846.332500", "154847.822500", "154849.312500", "154850.802500", "154852.292500", "154853.782500", "154855.272500", "154856.762500", "154858.252500", "154859.742500", "154901.232500", "154902.722500", "154904.212500", "154905.702500", "154907.192500", "154908.682500", "154910.172500", "154911.662500", "154913.152500", "154914.642500", "154916.132500", "154917.622500", "154919.112500", "154920.602500", "154922.092500", "154923.582500", "154925.072500", "154926.562500", "154928.052500", "154929.542500", "154931.032500", "154932.522500", "154934.012500", "154935.502500", "154936.992500", "154938.482500", "154939.972500", "154941.462500", "154942.952500", "154944.442500", "154945.932500", "154947.422500", "154948.912500", "154950.402500", "154951.892500", "154953.382500", "154954.872500", "154956.362500", "154957.852500", "154959.342500", "155000.832500", "155002.322500", "155003.812500", "155005.302500", "155006.792500", "155008.282500", "155009.772500", "155011.262500", "155012.752500", "155014.242500", "155015.732500", "155017.222500", "155018.712500"],
      "ContentTime": ["154319.891000", "154319.894000", "154319.897000", "154319.899000", "154319.902000", "154319.904000", "154319.906000", "154319.909000", "154319.911000", "154319.914000", "154319.916000", "154319.919000", "154319.921000", "154319.924000", "154319.926000", "154319.929000", "154319.931000", "154319.934000", "154319.936000", "154319.938000", "154319.941000", "154319.943000", "154339.826000", "154339.829000", "154339.831000", "154339.841000", "154339.843000", "154339.846000", "154339.848000", "154339.850000", "154339.858000", "154339.860000", "154339.863000", "154339.866000", "154339.868000", "154339.870000", "154339.873000", "154339.875000", "154339.878000", "154339.881000", "154339.883000", "154339.886000", "154339.888000", "154359.820000", "154359.822000", "154359.825000", "154359.827000", "154359.830000", "154359.832000", "154359.835000", "154359.837000", "154359.840000", "154359.843000", "154359.845000", "154359.848000", "154359.850000", "154359.853000", "154359.855000", "154359.857000", "154359.860000", "154359.862000", "154359.865000", "154359.867000", "154419.819000", "154419.822000", "154419.828000", "154419.830000", "154419.832000", "154419.836000", "154419.838000", "154419.841000", "154419.843000", "154419.846000", "154419.848000", "154419.851000", "154419.857000", "154419.860000", "154419.862000", "154419.865000", "154419.867000", "154419.870000", "154419.872000", "154419.875000", "154459.884000", "154459.887000", "154459.889000", "154459.892000", "154459.894000", "154459.897000", "154459.899000", "154459.902000", "154459.904000", "154459.907000", "154459.909000", "154459.912000", "154459.914000", "154459.917000", "154459.919000", "154459.921000", "154459.924000", "154459.926000", "154459.929000", "154459.931000", "154459.934000", "154459.936000", "154459.939000", "154459.941000", "154459.944000", "154459.946000", "154459.949000", "154459.951000", "154459.953000", "154459.956000", "154459.958000", "154539.853000", "154539.855000", "154539.858000", "154539.860000", "154539.863000", "154539.866000", "154539.868000", "154539.870000", "154539.873000", "154539.875000", "154539.878000", "154539.880000", "154539.883000", "154539.885000", "154539.888000", "154539.890000", "154539.893000", "154539.895000", "154539.898000", "154539.900000", "154539.903000", "154539.905000", "154539.907000", "154539.910000", "154539.912000", "154539.915000", "154539.917000", "154619.866000", "154619.868000", "154619.871000", "154619.873000", "154619.876000", "154619.878000", "154619.881000", "154619.883000", "154619.886000", "154619.888000", "154619.891000", "154619.893000", "154619.896000", "154619.898000", "154619.901000", "154619.903000", "154619.906000", "154619.908000", "154619.911000", "154619.913000", "154619.916000", "154619.918000", "154619.920000", "154619.928000", "154619.930000", "154619.933000", "154619.935000", "154659.845000", "154659.848000", "154659.850000", "154659.852000", "154659.855000", "154659.857000", "154659.860000", "154659.862000", "154659.865000", "154659.867000", "154659.870000", "154659.872000", "154659.875000", "154659.877000", "154659.880000", "154659.882000", "154659.885000", "154659.887000", "154659.890000", "154659.892000", "154659.895000", "154659.897000", "154659.900000", "154659.902000", "154659.905000", "154659.907000", "154659.910000", "154739.864000", "154739.866000", "154739.869000", "154739.871000", "154739.874000", "154739.876000", "154739.879000", "154739.881000", "154739.884000", "154739.886000", "154739.889000", "154739.891000", "154739.894000", "154739.896000", "154739.899000", "154739.901000", "154739.904000", "154739.906000", "154739.909000", "154739.911000", "154739.913000", "154739.916000", "154739.918000", "154739.921000", "154739.923000", "154739.926000", "154739.928000", "154819.856000", "154819.858000", "154819.861000", "154819.863000", "154819.866000", "154819.868000", "154819.871000", "154819.873000", "154819.876000", "154819.878000", "154819.881000", "154819.883000", "154819.886000", "154819.888000", "154819.891000", "154819.893000", "154819.896000", "154819.898000", "154819.901000", "154819.903000", "154819.906000", "154819.908000", "154819.911000", "154819.913000", "154819.916000", "154819.918000", "154859.863000", "154859.866000", "154859.869000", "154859.871000", "154859.874000", "154859.876000", "154859.879000", "154859.881000", "154859.884000", "154859.886000", "154859.889000", "154859.891000", "154859.893000", "154859.896000", "154859.898000", "154859.901000", "154859.903000", "154859.906000", "154859.908000", "154859.911000", "154859.913000", "154859.916000", "154859.918000", "154859.921000", "154859.923000", "154859.926000", "154859.928000", "154939.882000", "154939.885000", "154939.888000", "154939.890000", "154939.893000", "154939.895000", "154939.898000", "154939.900000", "154939.903000", "154939.905000", "154939.908000", "154939.910000", "154939.913000", "154939.915000", "154939.918000", "154939.920000", "154939.923000", "154939.925000", "154939.927000", "154939.930000", "154939.932000", "154939.935000", "154939.937000", "154939.940000", "154939.942000", "154939.945000", "154939.947000", "154959.807000", "154959.809000", "154959.812000", "154959.814000", "154959.817000", "154959.819000", "154959.822000", "154959.824000", "154959.827000", "154959.829000", "154959.832000", "154959.834000", "154959.837000", "154959.839000", "155020.758000", "155020.760000", "155020.763000", "155020.765000", "155020.768000", "155020.770000", "155020.773000", "155020.775000", "155020.778000", "155020.780000", "155020.783000", "155020.785000", "155020.788000", "155020.790000"],
      "InstanceCreationTime": ["154319.891000", "154319.894000", "154319.897000", "154319.899000", "154319.902000", "154319.904000", "154319.906000", "154319.909000", "154319.911000", "154319.914000", "154319.916000", "154319.919000", "154319.921000", "154319.924000", "154319.926000", "154319.929000", "154319.931000", "154319.934000", "154319.936000", "154319.938000", "154319.941000", "154319.943000", "154339.826000", "154339.829000", "154339.831000", "154339.841000", "154339.843000", "154339.846000", "154339.848000", "154339.850000", "154339.858000", "154339.860000", "154339.863000", "154339.866000", "154339.868000", "154339.870000", "154339.873000", "154339.875000", "154339.878000", "154339.881000", "154339.883000", "154339.886000", "154339.888000", "154359.820000", "154359.822000", "154359.825000", "154359.827000", "154359.830000", "154359.832000", "154359.835000", "154359.837000", "154359.840000", "154359.843000", "154359.845000", "154359.848000", "154359.850000", "154359.853000", "154359.855000", "154359.857000", "154359.860000", "154359.862000", "154359.865000", "154359.867000", "154419.819000", "154419.822000", "154419.828000", "154419.830000", "154419.832000", "154419.836000", "154419.838000", "154419.841000", "154419.843000", "154419.846000", "154419.848000", "154419.851000", "154419.857000", "154419.860000", "154419.862000", "154419.865000", "154419.867000", "154419.870000", "154419.872000", "154419.875000", "154459.884000", "154459.887000", "154459.889000", "154459.892000", "154459.894000", "154459.897000", "154459.899000", "154459.902000", "154459.904000", "154459.907000", "154459.909000", "154459.912000", "154459.914000", "154459.917000", "154459.919000", "154459.921000", "154459.924000", "154459.926000", "154459.929000", "154459.931000", "154459.934000", "154459.936000", "154459.939000", "154459.941000", "154459.944000", "154459.946000", "154459.949000", "154459.951000", "154459.953000", "154459.956000", "154459.958000", "154539.853000", "154539.855000", "154539.858000", "154539.860000", "154539.863000", "154539.866000", "154539.868000", "154539.870000", "154539.873000", "154539.875000", "154539.878000", "154539.880000", "154539.883000", "154539.885000", "154539.888000", "154539.890000", "154539.893000", "154539.895000", "154539.898000", "154539.900000", "154539.903000", "154539.905000", "154539.907000", "154539.910000", "154539.912000", "154539.915000", "154539.917000", "154619.866000", "154619.868000", "154619.871000", "154619.873000", "154619.876000", "154619.878000", "154619.881000", "154619.883000", "154619.886000", "154619.888000", "154619.891000", "154619.893000", "154619.896000", "154619.898000", "154619.901000", "154619.903000", "154619.906000", "154619.908000", "154619.911000", "154619.913000", "154619.916000", "154619.918000", "154619.920000", "154619.928000", "154619.930000", "154619.933000", "154619.935000", "154659.845000", "154659.848000", "154659.850000", "154659.852000", "154659.855000", "154659.857000", "154659.860000", "154659.862000", "154659.865000", "154659.867000", "154659.870000", "154659.872000", "154659.875000", "154659.877000", "154659.880000", "154659.882000", "154659.885000", "154659.887000", "154659.890000", "154659.892000", "154659.895000", "154659.897000", "154659.900000", "154659.902000", "154659.905000", "154659.907000", "154659.910000", "154739.864000", "154739.866000", "154739.869000", "154739.871000", "154739.874000", "154739.876000", "154739.879000", "154739.881000", "154739.884000", "154739.886000", "154739.889000", "154739.891000", "154739.894000", "154739.896000", "154739.899000", "154739.901000", "154739.904000", "154739.906000", "154739.909000", "154739.911000", "154739.913000", "154739.916000", "154739.918000", "154739.921000", "154739.923000", "154739.926000", "154739.928000", "154819.856000", "154819.858000", "154819.861000", "154819.863000", "154819.866000", "154819.868000", "154819.871000", "154819.873000", "154819.876000", "154819.878000", "154819.881000", "154819.883000", "154819.886000", "154819.888000", "154819.891000", "154819.893000", "154819.896000", "154819.898000", "154819.901000", "154819.903000", "154819.906000", "154819.908000", "154819.911000", "154819.913000", "154819.916000", "154819.918000", "154859.863000", "154859.866000", "154859.869000", "154859.871000", "154859.874000", "154859.876000", "154859.879000", "154859.881000", "154859.884000", "154859.886000", "154859.889000", "154859.891000", "154859.893000", "154859.896000", "154859.898000", "154859.901000", "154859.903000", "154859.906000", "154859.908000", "154859.911000", "154859.913000", "154859.916000", "154859.918000", "154859.921000", "154859.923000", "154859.926000", "154859.928000", "154939.882000", "154939.885000", "154939.888000", "154939.890000", "154939.893000", "154939.895000", "154939.898000", "154939.900000", "154939.903000", "154939.905000", "154939.908000", "154939.910000", "154939.913000", "154939.915000", "154939.918000", "154939.920000", "154939.923000", "154939.925000", "154939.927000", "154939.930000", "154939.932000", "154939.935000", "154939.937000", "154939.940000", "154939.942000", "154939.945000", "154939.947000", "154959.807000", "154959.809000", "154959.812000", "154959.814000", "154959.817000", "154959.819000", "154959.822000", "154959.824000", "154959.827000", "154959.829000", "154959.832000", "154959.834000", "154959.837000", "154959.839000", "155020.758000", "155020.760000", "155020.763000", "155020.765000", "155020.768000", "155020.770000", "155020.773000", "155020.775000", "155020.778000", "155020.780000", "155020.783000", "155020.785000", "155020.788000", "155020.790000"],
      "InstanceNumber": [1, 2, 3, 4, 5, 6, 7, 8, 9, 10, 11, 12, 13, 14, 15, 16, 17, 18, 19, 20, 21, 22, 23, 24, 25, 26, 27, 28, 29, 30, 31, 32, 33, 34, 35, 36, 37, 38, 39, 40, 41, 42, 43, 44, 45, 46, 47, 48, 49, 50, 51, 52, 53, 54, 55, 56, 57, 58, 59, 60, 61, 62, 63, 64, 65, 66, 67, 68, 69, 70, 71, 72, 73, 74, 75, 76, 77, 78, 79, 80, 81, 82, 83, 84, 85, 86, 87, 88, 89, 90, 91, 92, 93, 94, 95, 96, 97, 98, 99, 100, 101, 102, 103, 104, 105, 106, 107, 108, 109, 110, 111, 112, 113, 114, 115, 116, 117, 118, 119, 120, 121, 122, 123, 124, 125, 126, 127, 128, 129, 130, 131, 132, 133, 134, 135, 136, 137, 138, 139, 140, 141, 142, 143, 144, 145, 146, 147, 148, 149, 150, 151, 152, 153, 154, 155, 156, 157, 158, 159, 160, 161, 162, 163, 164, 165, 166, 167, 168, 169, 170, 171, 172, 173, 174, 175, 176, 177, 178, 179, 180, 181, 182, 183, 184, 185, 186, 187, 188, 189, 190, 191, 192, 193, 194, 195, 196, 197, 198, 199, 200, 201, 202, 203, 204, 205, 206, 207, 208, 209, 210, 211, 212, 213, 214, 215, 216, 217, 218, 219, 220, 221, 222, 223, 224, 225, 226, 227, 228, 229, 230, 231, 232, 233, 234, 235, 236, 237, 238, 239, 240, 241, 242, 243, 244, 245, 246, 247, 248, 249, 250, 251, 252, 253, 254, 255, 256, 257, 258, 259, 260, 261, 262, 263, 264, 265, 266, 267, 268, 269, 270, 271, 272, 273, 274, 275, 276, 277, 278, 279, 280, 281, 282, 283, 284, 285, 286, 287, 288, 289, 290, 291, 292, 293, 294, 295, 296, 297, 298, 299, 300, 301, 302, 303, 304, 305, 306, 307, 308, 309, 310, 311, 312, 313, 314, 315, 316, 317, 318, 319, 320, 321, 322, 323, 324, 325, 326, 327, 328, 329, 330],
      "WindowCenter": [4798.0, 4826.0, 4798.0, 4796.0, 4798.0, 4822.0, 4826.0, 4822.0, 4820.0, 4824.0, 4794.0, 4818.0, 4796.0, 4794.0, 4794.0, 4792.0, 4794.0, 4790.0, 4826.0, 4826.0, 4852.0, 4850.0, 4828.0, 4818.0, 4792.0, 4788.0, 4792.0, 4790.0, 4818.0, 4798.0, 4828.0, 4820.0, 4792.0, 4792.0, 4790.0, 4788.0, 4790.0, 4790.0, 4792.0, 4802.0, 4828.0, 4830.0, 4800.0, 4792.0, 4790.0, 4788.0, 4790.0, 4790.0, 4790.0, 4794.0, 4798.0, 4800.0, 4856.0, 4828.0, 4792.0, 4788.0, 4788.0, 4790.0, 4790.0, 4792.0, 4794.0, 4794.0, 4798.0, 4818.0, 4824.0, 4850.0, 4822.0, 4794.0, 4786.0, 4788.0, 4788.0, 4792.0, 4794.0, 4820.0, 4826.0, 4826.0, 4800.0, 4792.0, 4788.0, 4790.0, 4796.0, 4878.0, 4856.0, 4798.0, 4796.0, 4788.0, 4790.0, 4814.0, 4794.0, 4796.0, 4820.0, 4822.0, 4796.0, 4820.0, 4820.0, 4846.0, 4824.0, 4796.0, 4794.0, 4796.0, 4796.0, 4796.0, 4824.0, 4820.0, 4826.0, 4794.0, 4818.0, 4818.0, 4794.0, 4794.0, 4796.0, 4824.0, 4854.0, 4880.0, 4822.0, 4786.0, 4810.0, 4788.0, 4788.0, 4790.0, 4820.0, 4824.0, 4828.0, 4854.0, 4860.0, 4820.0, 4792.0, 4792.0, 4790.0, 4790.0, 4792.0, 4822.0, 4822.0, 4820.0, 4820.0, 4820.0, 4822.0, 4796.0, 4794.0, 4792.0, 4796.0, 4794.0, 4796.0, 4818.0, 4820.0, 4792.0, 4822.0, 4796.0, 4798.0, 4794.0, 4798.0, 4794.0, 4796.0, 4794.0, 4820.0, 4796.0, 4820.0, 4820.0, 4796.0, 4794.0, 4794.0, 4792.0, 4822.0, 4820.0, 4796.0, 4796.0, 4818.0, 4796.0, 4796.0, 4828.0, 4818.0, 4794.0, 4794.0, 4818.0, 4822.0, 4794.0, 4826.0, 4878.0, 4854.0, 4792.0, 4792.0, 4812.0, 4788.0, 4792.0, 4798.0, 4824.0, 4828.0, 4822.0, 4820.0, 4820.0, 4820.0, 4794.0, 4794.0, 4792.0, 4794.0, 4790.0, 4796.0, 4796.0, 4820.0, 4796.0, 4824.0, 4822.0, 4792.0, 4816.0, 4794.0, 4792.0, 4790.0, 4852.0, 4824.0, 4794.0, 4794.0, 4816.0, 4792.0, 4818.0, 4818.0, 4794.0, 4822.0, 4822.0, 4818.0, 4822.0, 4818.0, 4792.0, 4822.0, 4796.0, 4820.0, 4794.0, 4816.0, 4826.0, 4822.0, 4818.0, 4818.0, 4790.0, 4818.0, 4822.0, 4796.0, 4796.0, 4828.0, 4794.0, 4814.0, 4792.0, 4816.0, 4792.0, 4796.0, 4794.0, 4798.0, 4794.0, 4818.0, 4854.0, 4854.0, 4796.0, 4786.0, 4788.0, 4790.0, 4792.0, 4796.0, 4820.0, 4854.0, 4822.0, 4796.0, 4792.0, 4790.0, 4820.0, 4822.0, 4794.0, 4790.0, 4788.0, 4788.0, 4792.0, 4796.0, 4820.0, 4872.0, 4878.0, 4818.0, 4792.0, 4792.0, 4812.0, 4812.0, 4796.0, 4798.0, 4824.0, 4826.0, 4824.0, 4798.0, 4826.0, 4820.0, 4790.0, 4814.0, 4848.0, 4830.0, 4794.0, 4792.0, 4788.0, 4790.0, 4822.0, 4822.0, 4818.0, 4796.0, 4796.0, 4790.0, 4792.0, 4792.0, 4792.0, 4824.0, 4882.0, 4820.0, 4790.0, 4786.0, 4784.0, 4786.0, 4790.0, 4796.0, 4824.0, 4856.0, 4826.0, 4794.0, 4784.0, 4786.0, 4784.0, 4786.0, 4784.0, 4790.0, 4826.0, 4852.0, 4822.0, 4790.0, 4784.0, 4788.0, 4784.0, 4786.0, 4788.0],
