{
  "AcquisitionMatrixPE": 104,
  "AcquisitionNumber": 1,
  "AcquisitionTime": "15:51:20.945000",
  "BandwidthPerPixelPhaseEncode": 17.17,
  "BaseResolution": 104,
  "BodyPartExamined": "BRAIN",
  "CoilCombinationMethod": "Sum of Squares",
  "ConsistencyInfo": "N4_VE11C_LATEST_20160120",
  "ConversionSoftware": "dcm2niix",
  "ConversionSoftwareVersion": "v1.0.20220505",
  "DerivedVendorReportedEchoSpacing": 0.000560011,
  "DeviceSerialNumber": "167006",
  "DwellTime": 2.1e-06,
  "EchoTime": 0.037,
  "EchoTrainLength": 104,
  "EffectiveEchoSpacing": 0.000560011,
  "FlipAngle": 52,
  "HeudiconvVersion": "0.5.3.post811+g6206e14",
  "ImageComments": "Unaliased MB4/PE3/LB",
  "ImageOrientationPatientDICOM": [0.998782, -0.0490697, 0.0051772, 0.0476255, 0.93128, -0.361179],
  "ImageOrientationText": "Tra>Cor(-21.2)>Sag(-0.7)",
  "ImageType": [
    "ORIGINAL",
    "PRIMARY",
    "M",
    "MB",
    "ND",
    "MOSAIC"
],
  "ImagingFrequency": 123.259,
  "InPlanePhaseEncodingDirectionDICOM": "COL",
  "InstitutionAddress": "Chemin Queen-Mary 4565,Montreal,District,CA,H3W 1W5",
  "InstitutionName": "IUGM",
  "InstitutionalDepartmentName": "Department",
  "MRAcquisitionType": "2D",
  "MagneticFieldStrength": 3,
  "Manufacturer": "Siemens",
  "ManufacturersModelName": "Prisma_fit",
  "MatrixCoilMode": "SENSE",
  "Modality": "MR",
  "MultibandAccelerationFactor": 4,
  "PartialFourier": 1,
  "PatientPosition": "HFS",
  "PercentPhaseFOV": 100,
  "PercentSampling": 100,
  "PhaseEncodingDirection": "j",
  "PhaseEncodingSteps": 104,
  "PhaseResolution": 1,
  "PixelBandwidth": 2290,
  "ProcedureStepDescription": "games^mario3",
  "ProtocolName": "func_task-mario3_run-02",
  "PulseSequenceDetails": "%CustomerSeq%\\cmrr_mbep2d_bold",
  "ReceiveCoilActiveElements": "HC1-7;NC1,2",
  "ReceiveCoilName": "HeadNeck_64",
  "ReconMatrixPE": 104,
  "RepetitionTime": 1.49,
  "SAR": 0.0426591,
  "ScanOptions": "FS",
  "ScanningSequence": "EP",
  "SequenceName": "epfid2d1_104",
  "SequenceVariant": "SK\\SS",
  "SeriesDescription": "func_task-mario3_run-02",
  "SeriesNumber": 13,
  "ShimSetting": [623, -7253, -8836, 529, -3, -226, -107, -9],
  "SliceThickness": 2,
  "SliceTiming": [0, 0.7825, 0.0975, 0.88, 0.195, 0.98, 0.2925, 1.0775, 0.39, 1.175, 0.49, 1.2725, 0.5875, 1.37, 0.685, 0, 0.7825, 0.0975, 0.88, 0.195, 0.98, 0.2925, 1.0775, 0.39, 1.175, 0.49, 1.2725, 0.5875, 1.37, 0.685, 0, 0.7825, 0.0975, 0.88, 0.195, 0.98, 0.2925, 1.0775, 0.39, 1.175, 0.49, 1.2725, 0.5875, 1.37, 0.685, 0, 0.7825, 0.0975, 0.88, 0.195, 0.98, 0.2925, 1.0775, 0.39, 1.175, 0.49, 1.2725, 0.5875, 1.37, 0.685],
  "SoftwareVersions": "syngo MR E11",
  "SpacingBetweenSlices": 2,
  "StationName": "MRC35049",
  "TaskName": "mario3",
  "TotalReadoutTime": 0.0576811,
  "TxRefAmp": 230.874,
  "WipMemBlock": "6d815a2d-40e9-4b7b-b902-734d3b6edd09||Sequence: R017 ve11c/master r/75a17815+; Jun 28 2022 16:32:11 by eja",
  "dcmmeta_affine": [
    [-1.9975638389587402, 0.09525106847286224, -0.02580302394926548, 102.13784790039062],
    [0.0981394350528717, 1.8625593185424805, -0.7219703793525696, -68.12928771972656],
    [0.010354393161833286, 0.7223570942878723, 1.8649646043777466, -69.29969787597656],
    [0.0, 0.0, 0.0, 1.0]
],
  "dcmmeta_reorient_transform": [
    [0.0, -1.0, 0.0, 103.0],
    [1.0, 0.0, 0.0, 0.0],
    [0.0, 0.0, 1.0, 0.0],
    [0.0, 0.0, 0.0, 1.0]
],
  "dcmmeta_shape": [104, 104, 60, 364],
  "dcmmeta_slice_dim": 2,
  "dcmmeta_version": 0.6,
  "global": {
    "const": {
      "AcquisitionMatrix": [104, 0, 0, 104],
      "AngioFlag": "N",
      "BitsAllocated": 16,
      "BitsStored": 16,
      "BodyPartExamined": "BRAIN",
      "Columns": 832,
      "EchoNumbers": 1,
      "EchoTime": 37.0,
      "EchoTrainLength": 104,
      "FlipAngle": 52.0,
      "HighBit": 15,
      "ImageOrientationPatient": [0.99878193787872, -0.049069717767, 0.00517719668318, 0.04762553473236, 0.93127968757561, -0.3611785596496],
      "ImagePositionPatient": [-873.73335002377, -765.96318577129, 264.27207724059],
      "ImageType": [
        "ORIGINAL",
        "PRIMARY",
        "M",
        "MB",
        "ND",
        "MOSAIC"
],
      "ImagedNucleus": "1H",
      "ImagingFrequency": 123.258784,
      "InPlanePhaseEncodingDirection": "COL",
      "MRAcquisitionType": "2D",
      "MagneticFieldStrength": 3.0,
      "Manufacturer": "SIEMENS",
      "ManufacturerModelName": "Prisma_fit",
      "Modality": "MR",
      "NumberOfAverages": 1.0,
      "NumberOfPhaseEncodingSteps": 104,
      "PercentPhaseFieldOfView": 100.0,
      "PercentSampling": 100.0,
      "PerformedProcedureStepStartTime": "153756.547000",
      "PhotometricInterpretation": "MONOCHROME2",
      "PixelBandwidth": 2290.0,
      "PixelRepresentation": 0,
      "PixelSpacing": [2.0, 2.0],
      "ProtocolName": "func_task-mario3_run-02",
      "RepetitionTime": 1490.0,
      "Rows": 832,
      "SAR": 0.04265909815804,
      "SamplesPerPixel": 1,
      "ScanOptions": "FS",
      "ScanningSequence": "EP",
      "SequenceName": "epfid2d1_104",
      "SequenceVariant": [
        "SK",
        "SS"
],
      "SeriesDescription": "func_task-mario3_run-02",
      "SeriesNumber": 13,
      "SeriesTime": "155238.512000",
      "SliceLocation": -41.344811080508,
      "SliceThickness": 2.0,
      "SmallestImagePixelValue": 0,
      "SoftwareVersions": "syngo MR E11",
      "SpacingBetweenSlices": 2.0000000004442,
      "SpecificCharacterSet": "ISO_IR 100",
      "StudyID": "1",
      "StudyTime": "153756.476000",
      "TransmitCoilName": "Body",
      "VariableFlipAngleFlag": "N",
      "WindowCenterWidthExplanation": "Algo1",
      "dBdt": 0.0},
    "slices": {}
  },
  "time": {
    "samples": {
      "AcquisitionNumber": [1, 2, 3, 4, 5, 6, 7, 8, 9, 10, 11, 12, 13, 14, 15, 16, 17, 18, 19, 20, 21, 22, 23, 24, 25, 26, 27, 28, 29, 30, 31, 32, 33, 34, 35, 36, 37, 38, 39, 40, 41, 42, 43, 44, 45, 46, 47, 48, 49, 50, 51, 52, 53, 54, 55, 56, 57, 58, 59, 60, 61, 62, 63, 64, 65, 66, 67, 68, 69, 70, 71, 72, 73, 74, 75, 76, 77, 78, 79, 80, 81, 82, 83, 84, 85, 86, 87, 88, 89, 90, 91, 92, 93, 94, 95, 96, 97, 98, 99, 100, 101, 102, 103, 104, 105, 106, 107, 108, 109, 110, 111, 112, 113, 114, 115, 116, 117, 118, 119, 120, 121, 122, 123, 124, 125, 126, 127, 128, 129, 130, 131, 132, 133, 134, 135, 136, 137, 138, 139, 140, 141, 142, 143, 144, 145, 146, 147, 148, 149, 150, 151, 152, 153, 154, 155, 156, 157, 158, 159, 160, 161, 162, 163, 164, 165, 166, 167, 168, 169, 170, 171, 172, 173, 174, 175, 176, 177, 178, 179, 180, 181, 182, 183, 184, 185, 186, 187, 188, 189, 190, 191, 192, 193, 194, 195, 196, 197, 198, 199, 200, 201, 202, 203, 204, 205, 206, 207, 208, 209, 210, 211, 212, 213, 214, 215, 216, 217, 218, 219, 220, 221, 222, 223, 224, 225, 226, 227, 228, 229, 230, 231, 232, 233, 234, 235, 236, 237, 238, 239, 240, 241, 242, 243, 244, 245, 246, 247, 248, 249, 250, 251, 252, 253, 254, 255, 256, 257, 258, 259, 260, 261, 262, 263, 264, 265, 266, 267, 268, 269, 270, 271, 272, 273, 274, 275, 276, 277, 278, 279, 280, 281, 282, 283, 284, 285, 286, 287, 288, 289, 290, 291, 292, 293, 294, 295, 296, 297, 298, 299, 300, 301, 302, 303, 304, 305, 306, 307, 308, 309, 310, 311, 312, 313, 314, 315, 316, 317, 318, 319, 320, 321, 322, 323, 324, 325, 326, 327, 328, 329, 330, 331, 332, 333, 334, 335, 336, 337, 338, 339, 340, 341, 342, 343, 344, 345, 346, 347, 348, 349, 350, 351, 352, 353, 354, 355, 356, 357, 358, 359, 360, 361, 362, 363, 364],
      "AcquisitionTime": ["155120.945000", "155122.435000", "155123.925000", "155125.415000", "155126.905000", "155128.395000", "155129.885000", "155131.375000", "155132.865000", "155134.355000", "155135.845000", "155137.335000", "155138.825000", "155140.315000", "155141.805000", "155143.295000", "155144.785000", "155146.275000", "155147.765000", "155149.255000", "155150.745000", "155152.235000", "155153.725000", "155155.215000", "155156.705000", "155158.195000", "155159.685000", "155201.175000", "155202.665000", "155204.155000", "155205.645000", "155207.135000", "155208.625000", "155210.115000", "155211.605000", "155213.095000", "155214.585000", "155216.075000", "155217.565000", "155219.055000", "155220.545000", "155222.035000", "155223.525000", "155225.015000", "155226.505000", "155227.995000", "155229.485000", "155230.975000", "155232.465000", "155233.955000", "155235.445000", "155236.935000", "155238.425000", "155239.915000", "155241.405000", "155242.895000", "155244.385000", "155245.875000", "155247.365000", "155248.855000", "155250.345000", "155251.835000", "155253.325000", "155254.815000", "155256.305000", "155257.795000", "155259.285000", "155300.775000", "155302.265000", "155303.755000", "155305.245000", "155306.735000", "155308.225000", "155309.715000", "155311.205000", "155312.695000", "155314.185000", "155315.675000", "155317.165000", "155318.655000", "155320.145000", "155321.635000", "155323.125000", "155324.615000", "155326.105000", "155327.595000", "155329.085000", "155330.575000", "155332.065000", "155333.555000", "155335.045000", "155336.535000", "155338.025000", "155339.515000", "155341.005000", "155342.495000", "155343.985000", "155345.475000", "155346.965000", "155348.455000", "155349.945000", "155351.435000", "155352.925000", "155354.415000", "155355.905000", "155357.395000", "155358.885000", "155400.375000", "155401.865000", "155403.355000", "155404.845000", "155406.335000", "155407.825000", "155409.315000", "155410.805000", "155412.295000", "155413.785000", "155415.275000", "155416.765000", "155418.255000", "155419.745000", "155421.235000", "155422.725000", "155424.215000", "155425.705000", "155427.195000", "155428.685000", "155430.175000", "155431.665000", "155433.155000", "155434.645000", "155436.135000", "155437.625000", "155439.115000", "155440.605000", "155442.095000", "155443.585000", "155445.075000", "155446.565000", "155448.055000", "155449.545000", "155451.035000", "155452.525000", "155454.015000", "155455.505000", "155456.995000", "155458.485000", "155459.975000", "155501.465000", "155502.955000", "155504.445000", "155505.935000", "155507.425000", "155508.915000", "155510.405000", "155511.895000", "155513.385000", "155514.875000", "155516.365000", "155517.855000", "155519.345000", "155520.835000", "155522.325000", "155523.815000", "155525.305000", "155526.795000", "155528.285000", "155529.775000", "155531.265000", "155532.755000", "155534.245000", "155535.735000", "155537.225000", "155538.715000", "155540.205000", "155541.695000", "155543.185000", "155544.675000", "155546.165000", "155547.655000", "155549.145000", "155550.635000", "155552.125000", "155553.615000", "155555.105000", "155556.595000", "155558.085000", "155559.575000", "155601.065000", "155602.555000", "155604.045000", "155605.535000", "155607.025000", "155608.515000", "155610.005000", "155611.495000", "155612.985000", "155614.475000", "155615.965000", "155617.455000", "155618.945000", "155620.435000", "155621.925000", "155623.415000", "155624.905000", "155626.395000", "155627.885000", "155629.375000", "155630.865000", "155632.355000", "155633.845000", "155635.335000", "155636.825000", "155638.315000", "155639.805000", "155641.295000", "155642.785000", "155644.275000", "155645.765000", "155647.255000", "155648.745000", "155650.235000", "155651.725000", "155653.215000", "155654.705000", "155656.195000", "155657.685000", "155659.175000", "155700.665000", "155702.155000", "155703.645000", "155705.135000", "155706.625000", "155708.115000", "155709.605000", "155711.095000", "155712.585000", "155714.075000", "155715.565000", "155717.055000", "155718.545000", "155720.035000", "155721.525000", "155723.015000", "155724.505000", "155725.995000", "155727.485000", "155728.975000", "155730.465000", "155731.955000", "155733.445000", "155734.935000", "155736.425000", "155737.915000", "155739.405000", "155740.895000", "155742.385000", "155743.875000", "155745.365000", "155746.855000", "155748.345000", "155749.835000", "155751.325000", "155752.815000", "155754.305000", "155755.795000", "155757.285000", "155758.775000", "155800.265000", "155801.755000", "155803.245000", "155804.735000", "155806.225000", "155807.715000", "155809.205000", "155810.695000", "155812.185000", "155813.675000", "155815.165000", "155816.655000", "155818.145000", "155819.635000", "155821.125000", "155822.615000", "155824.105000", "155825.595000", "155827.085000", "155828.575000", "155830.065000", "155831.555000", "155833.045000", "155834.535000", "155836.025000", "155837.515000", "155839.005000", "155840.495000", "155841.985000", "155843.475000", "155844.965000", "155846.455000", "155847.945000", "155849.435000", "155850.925000", "155852.415000", "155853.905000", "155855.395000", "155856.885000", "155858.375000", "155859.865000", "155901.355000", "155902.845000", "155904.335000", "155905.825000", "155907.315000", "155908.805000", "155910.295000", "155911.785000", "155913.275000", "155914.765000", "155916.255000", "155917.745000", "155919.235000", "155920.725000", "155922.215000", "155923.705000", "155925.195000", "155926.685000", "155928.175000", "155929.665000", "155931.155000", "155932.645000", "155934.135000", "155935.625000", "155937.115000", "155938.605000", "155940.095000", "155941.585000", "155943.075000", "155944.565000", "155946.055000", "155947.545000", "155949.035000", "155950.525000", "155952.015000", "155953.505000", "155954.995000", "155956.485000", "155957.975000", "155959.465000", "160000.955000", "160002.445000", "160003.935000", "160005.425000", "160006.915000", "160008.405000", "160009.895000", "160011.385000", "160012.875000", "160014.365000", "160015.855000", "160017.345000", "160018.835000", "160020.325000", "160021.815000"],
      "ContentTime": ["155238.515000", "155238.519000", "155238.522000", "155238.525000", "155238.528000", "155238.532000", "155238.535000", "155238.538000", "155238.542000", "155238.545000", "155238.548000", "155238.551000", "155238.564000", "155238.567000", "155238.571000", "155238.575000", "155238.578000", "155238.581000", "155238.585000", "155238.588000", "155238.591000", "155238.594000", "155238.598000", "155238.601000", "155238.604000", "155238.608000", "155238.611000", "155238.614000", "155238.617000", "155258.485000", "155258.489000", "155258.492000", "155258.496000", "155258.499000", "155258.502000", "155258.506000", "155258.509000", "155258.512000", "155258.515000", "155258.519000", "155258.522000", "155258.525000", "155258.528000", "155258.532000", "155258.542000", "155258.545000", "155258.549000", "155258.552000", "155258.555000", "155318.485000", "155318.489000", "155318.504000", "155318.507000", "155318.510000", "155318.513000", "155318.517000", "155318.520000", "155318.523000", "155318.527000", "155318.537000", "155318.541000", "155318.544000", "155318.547000", "155318.550000", "155318.554000", "155318.557000", "155318.560000", "155318.564000", "155318.567000", "155318.570000", "155338.485000", "155338.489000", "155338.492000", "155338.495000", "155338.499000", "155338.502000", "155338.505000", "155338.508000", "155338.512000", "155338.515000", "155338.518000", "155338.521000", "155338.525000", "155338.528000", "155338.531000", "155338.535000", "155338.538000", "155338.541000", "155338.544000", "155338.548000", "155418.484000", "155418.488000", "155418.491000", "155418.494000", "155418.505000", "155418.508000", "155418.512000", "155418.515000", "155418.518000", "155418.522000", "155418.525000", "155418.528000", "155418.532000", "155418.535000", "155418.539000", "155418.543000", "155418.546000", "155418.550000", "155418.554000", "155418.557000", "155418.560000", "155418.564000", "155418.567000", "155418.570000", "155418.574000", "155418.577000", "155418.580000", "155418.583000", "155458.484000", "155458.488000", "155458.491000", "155458.495000", "155458.498000", "155458.501000", "155458.504000", "155458.508000", "155458.511000", "155458.514000", "155458.518000", "155458.521000", "155458.524000", "155458.527000", "155458.531000", "155458.534000", "155458.537000", "155458.540000", "155458.545000", "155458.548000", "155458.551000", "155458.555000", "155458.558000", "155458.561000", "155458.565000", "155458.568000", "155458.571000", "155538.485000", "155538.489000", "155538.492000", "155538.495000", "155538.499000", "155538.502000", "155538.505000", "155538.509000", "155538.512000", "155538.515000", "155538.518000", "155538.536000", "155538.539000", "155538.542000", "155538.546000", "155538.549000", "155538.552000", "155538.556000", "155538.559000", "155538.562000", "155538.566000", "155538.569000", "155538.572000", "155538.575000", "155538.579000", "155538.582000", "155538.585000", "155618.484000", "155618.488000", "155618.491000", "155618.494000", "155618.498000", "155618.501000", "155618.504000", "155618.508000", "155618.511000", "155618.514000", "155618.517000", "155618.521000", "155618.524000", "155618.527000", "155618.531000", "155618.534000", "155618.537000", "155618.540000", "155618.544000", "155618.547000", "155618.550000", "155618.553000", "155618.557000", "155618.560000", "155618.563000", "155618.566000", "155618.570000", "155658.484000", "155658.488000", "155658.491000", "155658.495000", "155658.498000", "155658.501000", "155658.504000", "155658.508000", "155658.511000", "155658.514000", "155658.518000", "155658.521000", "155658.524000", "155658.528000", "155658.531000", "155658.535000", "155658.539000", "155658.542000", "155658.545000", "155658.548000", "155658.552000", "155658.555000", "155658.558000", "155658.562000", "155658.565000", "155658.568000", "155658.572000", "155738.485000", "155738.489000", "155738.492000", "155738.495000", "155738.499000", "155738.502000", "155738.505000", "155738.509000", "155738.512000", "155738.515000", "155738.518000", "155738.522000", "155738.525000", "155738.528000", "155738.532000", "155738.535000", "155738.538000", "155738.541000", "155738.545000", "155738.548000", "155738.551000", "155738.555000", "155738.558000", "155738.572000", "155738.575000", "155738.578000", "155738.582000", "155818.485000", "155818.489000", "155818.492000", "155818.495000", "155818.499000", "155818.502000", "155818.505000", "155818.509000", "155818.512000", "155818.515000", "155818.519000", "155818.522000", "155818.525000", "155818.528000", "155818.532000", "155818.535000", "155818.538000", "155818.542000", "155818.545000", "155818.548000", "155818.551000", "155818.555000", "155818.558000", "155818.561000", "155818.565000", "155818.568000", "155818.571000", "155858.484000", "155858.488000", "155858.491000", "155858.495000", "155858.498000", "155858.501000", "155858.505000", "155858.508000", "155858.511000", "155858.514000", "155858.519000", "155858.522000", "155858.526000", "155858.529000", "155858.532000", "155858.536000", "155858.539000", "155858.542000", "155858.545000", "155858.549000", "155858.552000", "155858.555000", "155858.559000", "155858.562000", "155858.565000", "155858.568000", "155938.485000", "155938.489000", "155938.492000", "155938.496000", "155938.499000", "155938.502000", "155938.506000", "155938.509000", "155938.512000", "155938.515000", "155938.519000", "155938.522000", "155938.525000", "155938.529000", "155938.532000", "155938.535000", "155938.538000", "155938.542000", "155938.545000", "155938.548000", "155938.552000", "155938.555000", "155938.558000", "155938.562000", "155938.565000", "155938.568000", "155938.572000", "155958.485000", "155958.489000", "155958.492000", "155958.496000", "155958.499000", "155958.518000", "155958.521000", "155958.525000", "155958.528000", "155958.531000", "155958.535000", "155958.538000", "155958.541000", "155958.545000", "160023.703000", "160023.707000", "160023.710000", "160023.714000", "160023.717000", "160023.720000", "160023.724000", "160023.727000", "160023.730000", "160023.734000", "160023.737000", "160023.740000", "160023.744000", "160023.747000", "160023.750000", "160023.754000", "160023.757000"],
      "InstanceCreationTime": ["155238.515000", "155238.519000", "155238.522000", "155238.525000", "155238.528000", "155238.532000", "155238.535000", "155238.538000", "155238.542000", "155238.545000", "155238.548000", "155238.551000", "155238.564000", "155238.567000", "155238.571000", "155238.575000", "155238.578000", "155238.581000", "155238.585000", "155238.588000", "155238.591000", "155238.594000", "155238.598000", "155238.601000", "155238.604000", "155238.608000", "155238.611000", "155238.614000", "155238.617000", "155258.485000", "155258.489000", "155258.492000", "155258.496000", "155258.499000", "155258.502000", "155258.506000", "155258.509000", "155258.512000", "155258.515000", "155258.519000", "155258.522000", "155258.525000", "155258.528000", "155258.532000", "155258.542000", "155258.545000", "155258.549000", "155258.552000", "155258.555000", "155318.485000", "155318.489000", "155318.504000", "155318.507000", "155318.510000", "155318.513000", "155318.517000", "155318.520000", "155318.523000", "155318.527000", "155318.537000", "155318.541000", "155318.544000", "155318.547000", "155318.550000", "155318.554000", "155318.557000", "155318.560000", "155318.564000", "155318.567000", "155318.570000", "155338.485000", "155338.489000", "155338.492000", "155338.495000", "155338.499000", "155338.502000", "155338.505000", "155338.508000", "155338.512000", "155338.515000", "155338.518000", "155338.521000", "155338.525000", "155338.528000", "155338.531000", "155338.535000", "155338.538000", "155338.541000", "155338.544000", "155338.548000", "155418.484000", "155418.488000", "155418.491000", "155418.494000", "155418.505000", "155418.508000", "155418.512000", "155418.515000", "155418.518000", "155418.522000", "155418.525000", "155418.528000", "155418.532000", "155418.535000", "155418.539000", "155418.543000", "155418.546000", "155418.550000", "155418.554000", "155418.557000", "155418.560000", "155418.564000", "155418.567000", "155418.570000", "155418.574000", "155418.577000", "155418.580000", "155418.583000", "155458.484000", "155458.488000", "155458.491000", "155458.495000", "155458.498000", "155458.501000", "155458.504000", "155458.508000", "155458.511000", "155458.514000", "155458.518000", "155458.521000", "155458.524000", "155458.527000", "155458.531000", "155458.534000", "155458.537000", "155458.540000", "155458.545000", "155458.548000", "155458.551000", "155458.555000", "155458.558000", "155458.561000", "155458.565000", "155458.568000", "155458.571000", "155538.485000", "155538.489000", "155538.492000", "155538.495000", "155538.499000", "155538.502000", "155538.505000", "155538.509000", "155538.512000", "155538.515000", "155538.518000", "155538.536000", "155538.539000", "155538.542000", "155538.546000", "155538.549000", "155538.552000", "155538.556000", "155538.559000", "155538.562000", "155538.566000", "155538.569000", "155538.572000", "155538.575000", "155538.579000", "155538.582000", "155538.585000", "155618.484000", "155618.488000", "155618.491000", "155618.494000", "155618.498000", "155618.501000", "155618.504000", "155618.508000", "155618.511000", "155618.514000", "155618.517000", "155618.521000", "155618.524000", "155618.527000", "155618.531000", "155618.534000", "155618.537000", "155618.540000", "155618.544000", "155618.547000", "155618.550000", "155618.553000", "155618.557000", "155618.560000", "155618.563000", "155618.566000", "155618.570000", "155658.484000", "155658.488000", "155658.491000", "155658.495000", "155658.498000", "155658.501000", "155658.504000", "155658.508000", "155658.511000", "155658.514000", "155658.518000", "155658.521000", "155658.524000", "155658.528000", "155658.531000", "155658.535000", "155658.539000", "155658.542000", "155658.545000", "155658.548000", "155658.552000", "155658.555000", "155658.558000", "155658.562000", "155658.565000", "155658.568000", "155658.572000", "155738.485000", "155738.489000", "155738.492000", "155738.495000", "155738.499000", "155738.502000", "155738.505000", "155738.509000", "155738.512000", "155738.515000", "155738.518000", "155738.522000", "155738.525000", "155738.528000", "155738.532000", "155738.535000", "155738.538000", "155738.541000", "155738.545000", "155738.548000", "155738.551000", "155738.555000", "155738.558000", "155738.572000", "155738.575000", "155738.578000", "155738.582000", "155818.485000", "155818.489000", "155818.492000", "155818.495000", "155818.499000", "155818.502000", "155818.505000", "155818.509000", "155818.512000", "155818.515000", "155818.519000", "155818.522000", "155818.525000", "155818.528000", "155818.532000", "155818.535000", "155818.538000", "155818.542000", "155818.545000", "155818.548000", "155818.551000", "155818.555000", "155818.558000", "155818.561000", "155818.565000", "155818.568000", "155818.571000", "155858.484000", "155858.488000", "155858.491000", "155858.495000", "155858.498000", "155858.501000", "155858.505000", "155858.508000", "155858.511000", "155858.514000", "155858.519000", "155858.522000", "155858.526000", "155858.529000", "155858.532000", "155858.536000", "155858.539000", "155858.542000", "155858.545000", "155858.549000", "155858.552000", "155858.555000", "155858.559000", "155858.562000", "155858.565000", "155858.568000", "155938.485000", "155938.489000", "155938.492000", "155938.496000", "155938.499000", "155938.502000", "155938.506000", "155938.509000", "155938.512000", "155938.515000", "155938.519000", "155938.522000", "155938.525000", "155938.529000", "155938.532000", "155938.535000", "155938.538000", "155938.542000", "155938.545000", "155938.548000", "155938.552000", "155938.555000", "155938.558000", "155938.562000", "155938.565000", "155938.568000", "155938.572000", "155958.485000", "155958.489000", "155958.492000", "155958.496000", "155958.499000", "155958.518000", "155958.521000", "155958.525000", "155958.528000", "155958.531000", "155958.535000", "155958.538000", "155958.541000", "155958.545000", "160023.703000", "160023.707000", "160023.710000", "160023.714000", "160023.717000", "160023.720000", "160023.724000", "160023.727000", "160023.730000", "160023.734000", "160023.737000", "160023.740000", "160023.744000", "160023.747000", "160023.750000", "160023.754000", "160023.757000"],
      "InstanceNumber": [1, 2, 3, 4, 5, 6, 7, 8, 9, 10, 11, 12, 13, 14, 15, 16, 17, 18, 19, 20, 21, 22, 23, 24, 25, 26, 27, 28, 29, 30, 31, 32, 33, 34, 35, 36, 37, 38, 39, 40, 41, 42, 43, 44, 45, 46, 47, 48, 49, 50, 51, 52, 53, 54, 55, 56, 57, 58, 59, 60, 61, 62, 63, 64, 65, 66, 67, 68, 69, 70, 71, 72, 73, 74, 75, 76, 77, 78, 79, 80, 81, 82, 83, 84, 85, 86, 87, 88, 89, 90, 91, 92, 93, 94, 95, 96, 97, 98, 99, 100, 101, 102, 103, 104, 105, 106, 107, 108, 109, 110, 111, 112, 113, 114, 115, 116, 117, 118, 119, 120, 121, 122, 123, 124, 125, 126, 127, 128, 129, 130, 131, 132, 133, 134, 135, 136, 137, 138, 139, 140, 141, 142, 143, 144, 145, 146, 147, 148, 149, 150, 151, 152, 153, 154, 155, 156, 157, 158, 159, 160, 161, 162, 163, 164, 165, 166, 167, 168, 169, 170, 171, 172, 173, 174, 175, 176, 177, 178, 179, 180, 181, 182, 183, 184, 185, 186, 187, 188, 189, 190, 191, 192, 193, 194, 195, 196, 197, 198, 199, 200, 201, 202, 203, 204, 205, 206, 207, 208, 209, 210, 211, 212, 213, 214, 215, 216, 217, 218, 219, 220, 221, 222, 223, 224, 225, 226, 227, 228, 229, 230, 231, 232, 233, 234, 235, 236, 237, 238, 239, 240, 241, 242, 243, 244, 245, 246, 247, 248, 249, 250, 251, 252, 253, 254, 255, 256, 257, 258, 259, 260, 261, 262, 263, 264, 265, 266, 267, 268, 269, 270, 271, 272, 273, 274, 275, 276, 277, 278, 279, 280, 281, 282, 283, 284, 285, 286, 287, 288, 289, 290, 291, 292, 293, 294, 295, 296, 297, 298, 299, 300, 301, 302, 303, 304, 305, 306, 307, 308, 309, 310, 311, 312, 313, 314, 315, 316, 317, 318, 319, 320, 321, 322, 323, 324, 325, 326, 327, 328, 329, 330, 331, 332, 333, 334, 335, 336, 337, 338, 339, 340, 341, 342, 343, 344, 345, 346, 347, 348, 349, 350, 351, 352, 353, 354, 355, 356, 357, 358, 359, 360, 361, 362, 363, 364],
