{
  "AcquisitionMatrixPE": 104,
  "AcquisitionNumber": 1,
  "AcquisitionTime": "16:01:12.365000",
  "BandwidthPerPixelPhaseEncode": 17.17,
  "BaseResolution": 104,
  "BodyPartExamined": "BRAIN",
  "CoilCombinationMethod": "Sum of Squares",
  "ConsistencyInfo": "N4_VE11C_LATEST_20160120",
  "ConversionSoftware": "dcm2niix",
  "ConversionSoftwareVersion": "v1.0.20220505",
  "DerivedVendorReportedEchoSpacing": 0.000560011,
  "DeviceSerialNumber": "167006",
  "DwellTime": 2.1e-06,
  "EchoTime": 0.037,
  "EchoTrainLength": 104,
  "EffectiveEchoSpacing": 0.000560011,
  "FlipAngle": 52,
  "HeudiconvVersion": "0.5.3.post811+g6206e14",
  "ImageComments": "Unaliased MB4/PE3/LB",
  "ImageOrientationPatientDICOM": [0.998782, -0.0490697, 0.0051772, 0.0476255, 0.93128, -0.361179],
  "ImageOrientationText": "Tra>Cor(-21.2)>Sag(-0.7)",
  "ImageType": [
    "ORIGINAL",
    "PRIMARY",
    "M",
    "MB",
    "ND",
    "MOSAIC"
],
  "ImagingFrequency": 123.259,
  "InPlanePhaseEncodingDirectionDICOM": "COL",
  "InstitutionAddress": "Chemin Queen-Mary 4565,Montreal,District,CA,H3W 1W5",
  "InstitutionName": "IUGM",
  "InstitutionalDepartmentName": "Department",
  "MRAcquisitionType": "2D",
  "MagneticFieldStrength": 3,
  "Manufacturer": "Siemens",
  "ManufacturersModelName": "Prisma_fit",
  "MatrixCoilMode": "SENSE",
  "Modality": "MR",
  "MultibandAccelerationFactor": 4,
  "PartialFourier": 1,
  "PatientPosition": "HFS",
  "PercentPhaseFOV": 100,
  "PercentSampling": 100,
  "PhaseEncodingDirection": "j",
  "PhaseEncodingSteps": 104,
  "PhaseResolution": 1,
  "PixelBandwidth": 2290,
  "ProcedureStepDescription": "games^mario3",
  "ProtocolName": "func_task-mario3_run-03",
  "PulseSequenceDetails": "%CustomerSeq%\\cmrr_mbep2d_bold",
  "ReceiveCoilActiveElements": "HC1-7;NC1,2",
  "ReceiveCoilName": "HeadNeck_64",
  "ReconMatrixPE": 104,
  "RepetitionTime": 1.49,
  "SAR": 0.0426591,
  "ScanOptions": "FS",
  "ScanningSequence": "EP",
  "SequenceName": "epfid2d1_104",
  "SequenceVariant": "SK\\SS",
  "SeriesDescription": "func_task-mario3_run-03",
  "SeriesNumber": 16,
  "ShimSetting": [623, -7253, -8836, 529, -3, -226, -107, -9],
  "SliceThickness": 2,
  "SliceTiming": [0, 0.785, 0.1, 0.8825, 0.1975, 0.98, 0.295, 1.08, 0.3925, 1.1775, 0.49, 1.275, 0.59, 1.3725, 0.6875, 0, 0.785, 0.1, 0.8825, 0.1975, 0.98, 0.295, 1.08, 0.3925, 1.1775, 0.49, 1.275, 0.59, 1.3725, 0.6875, 0, 0.785, 0.1, 0.8825, 0.1975, 0.98, 0.295, 1.08, 0.3925, 1.1775, 0.49, 1.275, 0.59, 1.3725, 0.6875, 0, 0.785, 0.1, 0.8825, 0.1975, 0.98, 0.295, 1.08, 0.3925, 1.1775, 0.49, 1.275, 0.59, 1.3725, 0.6875],
  "SoftwareVersions": "syngo MR E11",
  "SpacingBetweenSlices": 2,
  "StationName": "MRC35049",
  "TaskName": "mario3",
  "TotalReadoutTime": 0.0576811,
  "TxRefAmp": 230.874,
  "WipMemBlock": "177854bf-ca3b-4d4a-85db-9b2f57c5d965||Sequence: R017 ve11c/master r/75a17815+; Jun 28 2022 16:32:11 by eja",
  "dcmmeta_affine": [
    [-1.9975638389587402, 0.09525106847286224, -0.02580302394926548, 102.13784790039062],
    [0.0981394350528717, 1.8625593185424805, -0.7219703793525696, -68.12928771972656],
    [0.010354393161833286, 0.7223570942878723, 1.8649646043777466, -69.29969787597656],
    [0.0, 0.0, 0.0, 1.0]
],
  "dcmmeta_reorient_transform": [
    [0.0, -1.0, 0.0, 103.0],
    [1.0, 0.0, 0.0, 0.0],
    [0.0, 0.0, 1.0, 0.0],
    [0.0, 0.0, 0.0, 1.0]
],
  "dcmmeta_shape": [104, 104, 60, 335],
  "dcmmeta_slice_dim": 2,
  "dcmmeta_version": 0.6,
  "global": {
    "const": {
      "AcquisitionMatrix": [104, 0, 0, 104],
      "AngioFlag": "N",
      "BitsAllocated": 16,
      "BitsStored": 16,
      "BodyPartExamined": "BRAIN",
      "Columns": 832,
      "EchoNumbers": 1,
      "EchoTime": 37.0,
      "EchoTrainLength": 104,
      "FlipAngle": 52.0,
      "HighBit": 15,
      "ImageOrientationPatient": [0.99878193787872, -0.049069717767, 0.00517719668318, 0.04762553473236, 0.93127968757561, -0.3611785596496],
      "ImagePositionPatient": [-873.73335002377, -765.96318577129, 264.27207724059],
      "ImageType": [
        "ORIGINAL",
        "PRIMARY",
        "M",
        "MB",
        "ND",
        "MOSAIC"
],
      "ImagedNucleus": "1H",
      "ImagingFrequency": 123.258788,
      "InPlanePhaseEncodingDirection": "COL",
      "MRAcquisitionType": "2D",
      "MagneticFieldStrength": 3.0,
      "Manufacturer": "SIEMENS",
      "ManufacturerModelName": "Prisma_fit",
      "Modality": "MR",
      "NumberOfAverages": 1.0,
      "NumberOfPhaseEncodingSteps": 104,
      "PercentPhaseFieldOfView": 100.0,
      "PercentSampling": 100.0,
      "PerformedProcedureStepStartTime": "153756.547000",
      "PhotometricInterpretation": "MONOCHROME2",
      "PixelBandwidth": 2290.0,
      "PixelRepresentation": 0,
      "PixelSpacing": [2.0, 2.0],
      "ProtocolName": "func_task-mario3_run-03",
      "RepetitionTime": 1490.0,
      "Rows": 832,
      "SAR": 0.04265909815804,
      "SamplesPerPixel": 1,
      "ScanOptions": "FS",
      "ScanningSequence": "EP",
      "SequenceName": "epfid2d1_104",
      "SequenceVariant": [
        "SK",
        "SS"
],
      "SeriesDescription": "func_task-mario3_run-03",
      "SeriesNumber": 16,
      "SeriesTime": "160223.780000",
      "SliceLocation": -41.344811080508,
      "SliceThickness": 2.0,
      "SmallestImagePixelValue": 0,
      "SoftwareVersions": "syngo MR E11",
      "SpacingBetweenSlices": 2.0000000004442,
      "SpecificCharacterSet": "ISO_IR 100",
      "StudyID": "1",
      "StudyTime": "153756.476000",
      "TransmitCoilName": "Body",
      "VariableFlipAngleFlag": "N",
      "WindowCenterWidthExplanation": "Algo1",
      "dBdt": 0.0},
    "slices": {}
  },
  "time": {
    "samples": {
      "AcquisitionNumber": [1, 2, 3, 4, 5, 6, 7, 8, 9, 10, 11, 12, 13, 14, 15, 16, 17, 18, 19, 20, 21, 22, 23, 24, 25, 26, 27, 28, 29, 30, 31, 32, 33, 34, 35, 36, 37, 38, 39, 40, 41, 42, 43, 44, 45, 46, 47, 48, 49, 50, 51, 52, 53, 54, 55, 56, 57, 58, 59, 60, 61, 62, 63, 64, 65, 66, 67, 68, 69, 70, 71, 72, 73, 74, 75, 76, 77, 78, 79, 80, 81, 82, 83, 84, 85, 86, 87, 88, 89, 90, 91, 92, 93, 94, 95, 96, 97, 98, 99, 100, 101, 102, 103, 104, 105, 106, 107, 108, 109, 110, 111, 112, 113, 114, 115, 116, 117, 118, 119, 120, 121, 122, 123, 124, 125, 126, 127, 128, 129, 130, 131, 132, 133, 134, 135, 136, 137, 138, 139, 140, 141, 142, 143, 144, 145, 146, 147, 148, 149, 150, 151, 152, 153, 154, 155, 156, 157, 158, 159, 160, 161, 162, 163, 164, 165, 166, 167, 168, 169, 170, 171, 172, 173, 174, 175, 176, 177, 178, 179, 180, 181, 182, 183, 184, 185, 186, 187, 188, 189, 190, 191, 192, 193, 194, 195, 196, 197, 198, 199, 200, 201, 202, 203, 204, 205, 206, 207, 208, 209, 210, 211, 212, 213, 214, 215, 216, 217, 218, 219, 220, 221, 222, 223, 224, 225, 226, 227, 228, 229, 230, 231, 232, 233, 234, 235, 236, 237, 238, 239, 240, 241, 242, 243, 244, 245, 246, 247, 248, 249, 250, 251, 252, 253, 254, 255, 256, 257, 258, 259, 260, 261, 262, 263, 264, 265, 266, 267, 268, 269, 270, 271, 272, 273, 274, 275, 276, 277, 278, 279, 280, 281, 282, 283, 284, 285, 286, 287, 288, 289, 290, 291, 292, 293, 294, 295, 296, 297, 298, 299, 300, 301, 302, 303, 304, 305, 306, 307, 308, 309, 310, 311, 312, 313, 314, 315, 316, 317, 318, 319, 320, 321, 322, 323, 324, 325, 326, 327, 328, 329, 330, 331, 332, 333, 334, 335],
      "AcquisitionTime": ["160112.365000", "160113.855000", "160115.345000", "160116.835000", "160118.325000", "160119.815000", "160121.305000", "160122.795000", "160124.285000", "160125.775000", "160127.265000", "160128.755000", "160130.245000", "160131.735000", "160133.225000", "160134.715000", "160136.205000", "160137.695000", "160139.185000", "160140.675000", "160142.165000", "160143.655000", "160145.145000", "160146.635000", "160148.125000", "160149.615000", "160151.105000", "160152.595000", "160154.085000", "160155.575000", "160157.065000", "160158.555000", "160200.045000", "160201.535000", "160203.025000", "160204.515000", "160206.005000", "160207.495000", "160208.985000", "160210.475000", "160211.965000", "160213.455000", "160214.945000", "160216.435000", "160217.925000", "160219.415000", "160220.905000", "160222.395000", "160223.885000", "160225.375000", "160226.865000", "160228.355000", "160229.845000", "160231.335000", "160232.825000", "160234.315000", "160235.805000", "160237.295000", "160238.785000", "160240.275000", "160241.765000", "160243.255000", "160244.745000", "160246.235000", "160247.725000", "160249.215000", "160250.705000", "160252.195000", "160253.685000", "160255.175000", "160256.665000", "160258.155000", "160259.645000", "160301.135000", "160302.625000", "160304.115000", "160305.605000", "160307.095000", "160308.585000", "160310.075000", "160311.565000", "160313.055000", "160314.545000", "160316.035000", "160317.525000", "160319.015000", "160320.505000", "160321.995000", "160323.485000", "160324.975000", "160326.465000", "160327.955000", "160329.445000", "160330.935000", "160332.425000", "160333.915000", "160335.405000", "160336.895000", "160338.385000", "160339.875000", "160341.365000", "160342.855000", "160344.345000", "160345.835000", "160347.325000", "160348.815000", "160350.305000", "160351.795000", "160353.285000", "160354.775000", "160356.265000", "160357.755000", "160359.245000", "160400.735000", "160402.225000", "160403.715000", "160405.205000", "160406.695000", "160408.185000", "160409.675000", "160411.165000", "160412.655000", "160414.145000", "160415.635000", "160417.125000", "160418.615000", "160420.105000", "160421.595000", "160423.085000", "160424.575000", "160426.065000", "160427.555000", "160429.045000", "160430.535000", "160432.025000", "160433.515000", "160435.005000", "160436.495000", "160437.985000", "160439.475000", "160440.965000", "160442.455000", "160443.945000", "160445.435000", "160446.925000", "160448.415000", "160449.905000", "160451.395000", "160452.885000", "160454.375000", "160455.865000", "160457.355000", "160458.845000", "160500.335000", "160501.825000", "160503.315000", "160504.805000", "160506.295000", "160507.785000", "160509.275000", "160510.765000", "160512.255000", "160513.745000", "160515.235000", "160516.725000", "160518.215000", "160519.705000", "160521.195000", "160522.685000", "160524.175000", "160525.665000", "160527.155000", "160528.645000", "160530.135000", "160531.625000", "160533.115000", "160534.605000", "160536.095000", "160537.585000", "160539.075000", "160540.565000", "160542.055000", "160543.545000", "160545.035000", "160546.525000", "160548.015000", "160549.505000", "160550.995000", "160552.485000", "160553.975000", "160555.465000", "160556.955000", "160558.445000", "160559.935000", "160601.425000", "160602.915000", "160604.405000", "160605.895000", "160607.385000", "160608.875000", "160610.365000", "160611.855000", "160613.345000", "160614.835000", "160616.325000", "160617.815000", "160619.305000", "160620.795000", "160622.285000", "160623.775000", "160625.265000", "160626.755000", "160628.245000", "160629.735000", "160631.225000", "160632.715000", "160634.205000", "160635.695000", "160637.185000", "160638.675000", "160640.165000", "160641.655000", "160643.145000", "160644.635000", "160646.125000", "160647.615000", "160649.105000", "160650.595000", "160652.085000", "160653.575000", "160655.065000", "160656.555000", "160658.045000", "160659.535000", "160701.025000", "160702.515000", "160704.005000", "160705.495000", "160706.985000", "160708.475000", "160709.965000", "160711.455000", "160712.945000", "160714.435000", "160715.925000", "160717.415000", "160718.905000", "160720.395000", "160721.885000", "160723.375000", "160724.865000", "160726.355000", "160727.845000", "160729.335000", "160730.825000", "160732.315000", "160733.805000", "160735.295000", "160736.785000", "160738.275000", "160739.765000", "160741.255000", "160742.745000", "160744.235000", "160745.725000", "160747.215000", "160748.705000", "160750.195000", "160751.685000", "160753.175000", "160754.665000", "160756.155000", "160757.645000", "160759.135000", "160800.625000", "160802.115000", "160803.605000", "160805.095000", "160806.585000", "160808.075000", "160809.565000", "160811.055000", "160812.545000", "160814.035000", "160815.525000", "160817.015000", "160818.505000", "160819.995000", "160821.485000", "160822.975000", "160824.465000", "160825.955000", "160827.445000", "160828.935000", "160830.425000", "160831.915000", "160833.405000", "160834.895000", "160836.385000", "160837.875000", "160839.365000", "160840.855000", "160842.345000", "160843.835000", "160845.325000", "160846.815000", "160848.305000", "160849.795000", "160851.285000", "160852.775000", "160854.265000", "160855.755000", "160857.245000", "160858.735000", "160900.225000", "160901.715000", "160903.205000", "160904.695000", "160906.185000", "160907.675000", "160909.165000", "160910.655000", "160912.145000", "160913.635000", "160915.125000", "160916.615000", "160918.105000", "160919.595000", "160921.085000", "160922.575000", "160924.065000", "160925.555000", "160927.045000", "160928.535000", "160930.025000"],
      "ContentTime": ["160223.783000", "160223.787000", "160223.790000", "160223.793000", "160223.796000", "160223.800000", "160223.803000", "160223.806000", "160223.810000", "160223.813000", "160223.816000", "160223.819000", "160223.823000", "160223.826000", "160223.829000", "160223.833000", "160223.836000", "160223.839000", "160223.842000", "160223.845000", "160223.849000", "160223.852000", "160223.855000", "160223.859000", "160243.748000", "160243.752000", "160243.755000", "160243.759000", "160243.762000", "160243.766000", "160243.769000", "160243.784000", "160243.787000", "160243.790000", "160243.794000", "160243.797000", "160243.800000", "160243.803000", "160243.807000", "160243.810000", "160243.813000", "160243.817000", "160243.820000", "160243.823000", "160303.748000", "160303.757000", "160303.760000", "160303.764000", "160303.767000", "160303.770000", "160303.774000", "160303.779000", "160303.784000", "160303.787000", "160303.791000", "160303.795000", "160303.798000", "160303.801000", "160303.805000", "160303.821000", "160303.824000", "160303.827000", "160303.831000", "160303.840000", "160323.748000", "160323.752000", "160323.755000", "160323.758000", "160323.761000", "160323.765000", "160323.768000", "160323.771000", "160323.775000", "160323.778000", "160323.781000", "160323.784000", "160323.788000", "160323.791000", "160323.794000", "160323.797000", "160323.801000", "160323.804000", "160323.807000", "160323.811000", "160323.814000", "160403.749000", "160403.753000", "160403.756000", "160403.759000", "160403.762000", "160403.766000", "160403.772000", "160403.775000", "160403.778000", "160403.782000", "160403.785000", "160403.789000", "160403.792000", "160403.795000", "160403.799000", "160403.802000", "160403.805000", "160403.808000", "160403.812000", "160403.815000", "160403.818000", "160403.822000", "160403.825000", "160403.828000", "160403.831000", "160403.835000", "160403.838000", "160403.841000", "160403.845000", "160443.748000", "160443.752000", "160443.755000", "160443.758000", "160443.762000", "160443.765000", "160443.768000", "160443.771000", "160443.775000", "160443.778000", "160443.781000", "160443.785000", "160443.788000", "160443.791000", "160443.794000", "160443.798000", "160443.801000", "160443.804000", "160443.808000", "160443.811000", "160443.814000", "160443.817000", "160443.821000", "160443.824000", "160443.827000", "160443.831000", "160443.834000", "160523.748000", "160523.752000", "160523.755000", "160523.758000", "160523.762000", "160523.765000", "160523.768000", "160523.772000", "160523.775000", "160523.778000", "160523.782000", "160523.785000", "160523.788000", "160523.792000", "160523.795000", "160523.803000", "160523.819000", "160523.822000", "160523.825000", "160523.828000", "160523.832000", "160523.835000", "160523.838000", "160523.842000", "160523.845000", "160523.848000", "160523.851000", "160603.749000", "160603.753000", "160603.756000", "160603.759000", "160603.763000", "160603.766000", "160603.769000", "160603.773000", "160603.776000", "160603.779000", "160603.782000", "160603.786000", "160603.789000", "160603.796000", "160603.799000", "160603.803000", "160603.806000", "160603.809000", "160603.812000", "160603.816000", "160603.819000", "160603.822000", "160603.826000", "160603.829000", "160603.832000", "160603.835000", "160603.838000", "160643.748000", "160643.752000", "160643.755000", "160643.758000", "160643.762000", "160643.765000", "160643.769000", "160643.772000", "160643.776000", "160643.780000", "160643.784000", "160643.787000", "160643.791000", "160643.794000", "160643.798000", "160643.801000", "160643.805000", "160643.808000", "160643.811000", "160643.814000", "160643.818000", "160643.821000", "160643.824000", "160643.828000", "160643.831000", "160643.834000", "160723.748000", "160723.752000", "160723.755000", "160723.758000", "160723.762000", "160723.765000", "160723.768000", "160723.772000", "160723.775000", "160723.778000", "160723.781000", "160723.785000", "160723.788000", "160723.791000", "160723.795000", "160723.798000", "160723.801000", "160723.804000", "160723.808000", "160723.811000", "160723.814000", "160723.818000", "160723.821000", "160723.824000", "160723.828000", "160723.831000", "160723.834000", "160803.748000", "160803.752000", "160803.755000", "160803.759000", "160803.762000", "160803.765000", "160803.769000", "160803.772000", "160803.775000", "160803.779000", "160803.782000", "160803.785000", "160803.789000", "160803.792000", "160803.795000", "160803.798000", "160803.802000", "160803.805000", "160803.808000", "160803.812000", "160803.815000", "160803.818000", "160803.822000", "160803.825000", "160803.828000", "160803.831000", "160803.835000", "160843.749000", "160843.753000", "160843.756000", "160843.759000", "160843.763000", "160843.766000", "160843.770000", "160843.773000", "160843.776000", "160843.779000", "160843.783000", "160843.786000", "160843.789000", "160843.793000", "160843.796000", "160843.799000", "160843.802000", "160843.806000", "160843.809000", "160843.812000", "160843.815000", "160843.819000", "160843.822000", "160843.825000", "160843.828000", "160843.832000", "160843.835000", "160923.748000", "160923.752000", "160923.755000", "160923.758000", "160923.762000", "160923.765000", "160923.769000", "160923.772000", "160923.775000", "160923.779000", "160923.782000", "160923.786000", "160923.789000", "160923.799000", "160923.802000", "160923.805000", "160923.809000", "160923.812000", "160923.815000", "160923.819000", "160923.822000", "160923.825000", "160923.828000", "160923.832000", "160923.835000", "160923.838000", "160923.842000", "160932.669000", "160932.673000", "160932.677000", "160932.680000", "160932.683000", "160932.687000"],
      "InstanceCreationTime": ["160223.783000", "160223.787000", "160223.790000", "160223.793000", "160223.796000", "160223.800000", "160223.803000", "160223.806000", "160223.810000", "160223.813000", "160223.816000", "160223.819000", "160223.823000", "160223.826000", "160223.829000", "160223.833000", "160223.836000", "160223.839000", "160223.842000", "160223.845000", "160223.849000", "160223.852000", "160223.855000", "160223.859000", "160243.748000", "160243.752000", "160243.755000", "160243.759000", "160243.762000", "160243.766000", "160243.769000", "160243.784000", "160243.787000", "160243.790000", "160243.794000", "160243.797000", "160243.800000", "160243.803000", "160243.807000", "160243.810000", "160243.813000", "160243.817000", "160243.820000", "160243.823000", "160303.748000", "160303.757000", "160303.760000", "160303.764000", "160303.767000", "160303.770000", "160303.774000", "160303.779000", "160303.784000", "160303.787000", "160303.791000", "160303.795000", "160303.798000", "160303.801000", "160303.805000", "160303.821000", "160303.824000", "160303.827000", "160303.831000", "160303.840000", "160323.748000", "160323.752000", "160323.755000", "160323.758000", "160323.761000", "160323.765000", "160323.768000", "160323.771000", "160323.775000", "160323.778000", "160323.781000", "160323.784000", "160323.788000", "160323.791000", "160323.794000", "160323.797000", "160323.801000", "160323.804000", "160323.807000", "160323.811000", "160323.814000", "160403.749000", "160403.753000", "160403.756000", "160403.759000", "160403.762000", "160403.766000", "160403.772000", "160403.775000", "160403.778000", "160403.782000", "160403.785000", "160403.789000", "160403.792000", "160403.795000", "160403.799000", "160403.802000", "160403.805000", "160403.808000", "160403.812000", "160403.815000", "160403.818000", "160403.822000", "160403.825000", "160403.828000", "160403.831000", "160403.835000", "160403.838000", "160403.841000", "160403.845000", "160443.748000", "160443.752000", "160443.755000", "160443.758000", "160443.762000", "160443.765000", "160443.768000", "160443.771000", "160443.775000", "160443.778000", "160443.781000", "160443.785000", "160443.788000", "160443.791000", "160443.794000", "160443.798000", "160443.801000", "160443.804000", "160443.808000", "160443.811000", "160443.814000", "160443.817000", "160443.821000", "160443.824000", "160443.827000", "160443.831000", "160443.834000", "160523.748000", "160523.752000", "160523.755000", "160523.758000", "160523.762000", "160523.765000", "160523.768000", "160523.772000", "160523.775000", "160523.778000", "160523.782000", "160523.785000", "160523.788000", "160523.792000", "160523.795000", "160523.803000", "160523.819000", "160523.822000", "160523.825000", "160523.828000", "160523.832000", "160523.835000", "160523.838000", "160523.842000", "160523.845000", "160523.848000", "160523.851000", "160603.749000", "160603.753000", "160603.756000", "160603.759000", "160603.763000", "160603.766000", "160603.769000", "160603.773000", "160603.776000", "160603.779000", "160603.782000", "160603.786000", "160603.789000", "160603.796000", "160603.799000", "160603.803000", "160603.806000", "160603.809000", "160603.812000", "160603.816000", "160603.819000", "160603.822000", "160603.826000", "160603.829000", "160603.832000", "160603.835000", "160603.838000", "160643.748000", "160643.752000", "160643.755000", "160643.758000", "160643.762000", "160643.765000", "160643.769000", "160643.772000", "160643.776000", "160643.780000", "160643.784000", "160643.787000", "160643.791000", "160643.794000", "160643.798000", "160643.801000", "160643.805000", "160643.808000", "160643.811000", "160643.814000", "160643.818000", "160643.821000", "160643.824000", "160643.828000", "160643.831000", "160643.834000", "160723.748000", "160723.752000", "160723.755000", "160723.758000", "160723.762000", "160723.765000", "160723.768000", "160723.772000", "160723.775000", "160723.778000", "160723.781000", "160723.785000", "160723.788000", "160723.791000", "160723.795000", "160723.798000", "160723.801000", "160723.804000", "160723.808000", "160723.811000", "160723.814000", "160723.818000", "160723.821000", "160723.824000", "160723.828000", "160723.831000", "160723.834000", "160803.748000", "160803.752000", "160803.755000", "160803.759000", "160803.762000", "160803.765000", "160803.769000", "160803.772000", "160803.775000", "160803.779000", "160803.782000", "160803.785000", "160803.789000", "160803.792000", "160803.795000", "160803.798000", "160803.802000", "160803.805000", "160803.808000", "160803.812000", "160803.815000", "160803.818000", "160803.822000", "160803.825000", "160803.828000", "160803.831000", "160803.835000", "160843.749000", "160843.753000", "160843.756000", "160843.759000", "160843.763000", "160843.766000", "160843.770000", "160843.773000", "160843.776000", "160843.779000", "160843.783000", "160843.786000", "160843.789000", "160843.793000", "160843.796000", "160843.799000", "160843.802000", "160843.806000", "160843.809000", "160843.812000", "160843.815000", "160843.819000", "160843.822000", "160843.825000", "160843.828000", "160843.832000", "160843.835000", "160923.748000", "160923.752000", "160923.755000", "160923.758000", "160923.762000", "160923.765000", "160923.769000", "160923.772000", "160923.775000", "160923.779000", "160923.782000", "160923.786000", "160923.789000", "160923.799000", "160923.802000", "160923.805000", "160923.809000", "160923.812000", "160923.815000", "160923.819000", "160923.822000", "160923.825000", "160923.828000", "160923.832000", "160923.835000", "160923.838000", "160923.842000", "160932.669000", "160932.673000", "160932.677000", "160932.680000", "160932.683000", "160932.687000"],
      "InstanceNumber": [1, 2, 3, 4, 5, 6, 7, 8, 9, 10, 11, 12, 13, 14, 15, 16, 17, 18, 19, 20, 21, 22, 23, 24, 25, 26, 27, 28, 29, 30, 31, 32, 33, 34, 35, 36, 37, 38, 39, 40, 41, 42, 43, 44, 45, 46, 47, 48, 49, 50, 51, 52, 53, 54, 55, 56, 57, 58, 59, 60, 61, 62, 63, 64, 65, 66, 67, 68, 69, 70, 71, 72, 73, 74, 75, 76, 77, 78, 79, 80, 81, 82, 83, 84, 85, 86, 87, 88, 89, 90, 91, 92, 93, 94, 95, 96, 97, 98, 99, 100, 101, 102, 103, 104, 105, 106, 107, 108, 109, 110, 111, 112, 113, 114, 115, 116, 117, 118, 119, 120, 121, 122, 123, 124, 125, 126, 127, 128, 129, 130, 131, 132, 133, 134, 135, 136, 137, 138, 139, 140, 141, 142, 143, 144, 145, 146, 147, 148, 149, 150, 151, 152, 153, 154, 155, 156, 157, 158, 159, 160, 161, 162, 163, 164, 165, 166, 167, 168, 169, 170, 171, 172, 173, 174, 175, 176, 177, 178, 179, 180, 181, 182, 183, 184, 185, 186, 187, 188, 189, 190, 191, 192, 193, 194, 195, 196, 197, 198, 199, 200, 201, 202, 203, 204, 205, 206, 207, 208, 209, 210, 211, 212, 213, 214, 215, 216, 217, 218, 219, 220, 221, 222, 223, 224, 225, 226, 227, 228, 229, 230, 231, 232, 233, 234, 235, 236, 237, 238, 239, 240, 241, 242, 243, 244, 245, 246, 247, 248, 249, 250, 251, 252, 253, 254, 255, 256, 257, 258, 259, 260, 261, 262, 263, 264, 265, 266, 267, 268, 269, 270, 271, 272, 273, 274, 275, 276, 277, 278, 279, 280, 281, 282, 283, 284, 285, 286, 287, 288, 289, 290, 291, 292, 293, 294, 295, 296, 297, 298, 299, 300, 301, 302, 303, 304, 305, 306, 307, 308, 309, 310, 311, 312, 313, 314, 315, 316, 317, 318, 319, 320, 321, 322, 323, 324, 325, 326, 327, 328, 329, 330, 331, 332, 333, 334, 335],
      "LargestImagePixelValue": [42310, 40997, 40827, 40154, 39548, 38705, 39285, 39495, 39518, 39800, 40044, 40336, 40522, 39918, 39280, 39500, 39761, 38893, 39261, 39733, 39810, 39908, 39673, 40000, 39280, 39763, 39134, 39550, 39570, 40199, 39928, 40290, 39705, 40587, 40798, 40451, 39442, 40315, 40291, 40776, 39959, 41260, 40697, 40306, 40642, 39660, 39940, 39488, 39647, 39428, 40155, 40561, 39926, 39620, 40480, 40150, 40440, 40484, 40251, 40317, 39967, 39034, 39456, 38838, 39056, 38557, 39374, 38833, 40060, 38998, 39615, 38736, 41178, 38458, 38590, 38643, 39316, 39126, 39468, 38668, 38633, 38557, 39062, 39810, 39149, 39398, 40112, 40365, 41201, 40729, 40990, 40897, 40621, 40332, 39550, 40686, 41244, 42271, 41941, 42131, 41391, 42064, 41289, 41231, 38063, 41405, 41355, 41117, 41269, 42011, 41413, 40927, 41315, 40571, 39458, 40486, 38609, 39601, 39593, 40427, 40254, 38955, 39889, 40062, 39839, 39565, 39713, 39984, 39682, 39491, 39016, 39573, 39295, 39142, 39535, 39705, 39249, 39597, 39208, 39213, 39731, 39345, 39368, 39190, 39309, 39099, 39460, 39157, 39731, 39422, 41200, 39335, 39476, 39584, 39859, 39189, 39456, 39677, 39538, 39357, 39475, 39471, 39754, 39633, 39497, 39351, 39342, 39384, 40060, 40415, 39625, 39712, 40530, 40070, 39121, 40065, 40036, 39905, 40492, 40910, 40475, 40076, 40109, 40030, 39654, 39964, 40298, 39920, 41371, 40608, 40907, 40686, 40779, 40116, 41241, 40748, 40941, 40826, 40853, 40825, 41000, 40632, 41379, 40940, 41827, 40672, 40714, 41105, 40278, 40251, 40702, 41070, 40237, 41247, 41811, 41829, 41354, 41891, 41736, 41229, 41173, 40922, 41491, 41394, 40979, 41632, 41343, 41283, 41644, 41373, 41615, 41510, 42004, 40888, 41391, 41230, 41686, 41198, 41408, 40956, 41279, 41180, 41258, 41198, 41668, 41712, 41665, 41751, 41460, 41620, 41303, 41609, 41549, 41782, 40875, 41737, 42153, 41662, 41733, 42076, 41718, 40956, 41290, 41475, 41322, 41470, 40716, 41386, 41393, 41285, 40898, 41390, 41853, 41961, 41174, 41936, 41067, 41561, 41412, 41337, 41423, 41229, 40479, 40307, 39852, 39858, 41051, 41336, 40790, 41381, 41246, 41128, 41094, 40362, 41377, 40251, 38984, 40019, 40118, 40578, 40946, 40373, 40402, 39390, 39278, 39914, 40335, 40060, 39336, 40208, 40322, 40613, 40475, 40618, 41516, 40087, 40202, 40542, 39864, 40838, 40363, 40912, 39810, 40365, 40000, 40924, 41268, 40931, 40288, 40905, 40668, 40747, 41887, 40840, 40879],
