{
  "AcquisitionMatrixPE": 104,
  "AcquisitionNumber": 1,
  "AcquisitionTime": "16:10:27.767500",
  "BandwidthPerPixelPhaseEncode": 17.17,
  "BaseResolution": 104,
  "BodyPartExamined": "BRAIN",
  "CoilCombinationMethod": "Sum of Squares",
  "ConsistencyInfo": "N4_VE11C_LATEST_20160120",
  "ConversionSoftware": "dcm2niix",
  "ConversionSoftwareVersion": "v1.0.20220505",
  "DerivedVendorReportedEchoSpacing": 0.000560011,
  "DeviceSerialNumber": "167006",
  "DwellTime": 2.1e-06,
  "EchoTime": 0.037,
  "EchoTime1": 0.037,
  "EchoTime2": 0.001,
  "EchoTrainLength": 104,
  "EffectiveEchoSpacing": 0.000560011,
  "FlipAngle": 52,
  "HeudiconvVersion": "0.5.3.post811+g6206e14",
  "ImageComments": "Unaliased MB4/PE3/LB",
  "ImageOrientationPatientDICOM": [0.998782, -0.0490697, 0.0051772, 0.0476255, 0.93128, -0.361179],
  "ImageOrientationText": "Tra>Cor(-21.2)>Sag(-0.7)",
  "ImageType": [
    "ORIGINAL",
    "PRIMARY",
    "P",
    "MB",
    "ND",
    "MOSAIC",
    "PHASE"
],
  "ImagingFrequency": 123.259,
  "InPlanePhaseEncodingDirectionDICOM": "COL",
  "InstitutionAddress": "Chemin Queen-Mary 4565,Montreal,District,CA,H3W 1W5",
  "InstitutionName": "IUGM",
  "InstitutionalDepartmentName": "Department",
  "MRAcquisitionType": "2D",
  "MagneticFieldStrength": 3,
  "Manufacturer": "Siemens",
  "ManufacturersModelName": "Prisma_fit",
  "MatrixCoilMode": "SENSE",
  "Modality": "MR",
  "MultibandAccelerationFactor": 4,
  "PartialFourier": 1,
  "PatientPosition": "HFS",
  "PercentPhaseFOV": 100,
  "PercentSampling": 100,
  "PhaseEncodingDirection": "j",
  "PhaseEncodingSteps": 104,
  "PhaseResolution": 1,
  "PixelBandwidth": 2290,
  "ProcedureStepDescription": "games^mario3",
  "ProtocolName": "func_task-mario3_run-04",
  "PulseSequenceDetails": "%CustomerSeq%\\cmrr_mbep2d_bold",
  "ReceiveCoilActiveElements": "HC1-7;NC1,2",
  "ReceiveCoilName": "HeadNeck_64",
  "ReconMatrixPE": 104,
  "RepetitionTime": 1.49,
  "SAR": 0.0426591,
  "ScanOptions": "FS",
  "ScanningSequence": "EP",
  "SequenceName": "epfid2d1_104",
  "SequenceVariant": "SK\\SS",
  "SeriesDescription": "func_task-mario3_run-04",
  "SeriesNumber": 20,
  "ShimSetting": [623, -7253, -8836, 529, -3, -226, -107, -9],
  "SliceThickness": 2,
  "SliceTiming": [0, 0.7825, 0.0975, 0.8825, 0.195, 0.98, 0.2925, 1.0775, 0.3925, 1.175, 0.49, 1.2725, 0.5875, 1.3725, 0.685, 0, 0.7825, 0.0975, 0.8825, 0.195, 0.98, 0.2925, 1.0775, 0.3925, 1.175, 0.49, 1.2725, 0.5875, 1.3725, 0.685, 0, 0.7825, 0.0975, 0.8825, 0.195, 0.98, 0.2925, 1.0775, 0.3925, 1.175, 0.49, 1.2725, 0.5875, 1.3725, 0.685, 0, 0.7825, 0.0975, 0.8825, 0.195, 0.98, 0.2925, 1.0775, 0.3925, 1.175, 0.49, 1.2725, 0.5875, 1.3725, 0.685],
  "SoftwareVersions": "syngo MR E11",
  "SpacingBetweenSlices": 2,
  "StationName": "MRC35049",
  "TaskName": "mario3",
  "TotalReadoutTime": 0.0576811,
  "TxRefAmp": 230.874,
  "WipMemBlock": "a474a4b8-a4c7-4723-8c46-1f86428d12ba||Sequence: R017 ve11c/master r/75a17815+; Jun 28 2022 16:32:11 by eja",
  "dcmmeta_affine": [
    [-1.9975638389587402, 0.09525106847286224, -0.02580302394926548, 102.13784790039062],
    [0.0981394350528717, 1.8625593185424805, -0.7219703793525696, -68.12928771972656],
    [0.010354393161833286, 0.7223570942878723, 1.8649646043777466, -69.29969787597656],
    [0.0, 0.0, 0.0, 1.0]
],
  "dcmmeta_reorient_transform": [
    [0.0, -1.0, 0.0, 103.0],
    [1.0, 0.0, 0.0, 0.0],
    [0.0, 0.0, 1.0, 0.0],
    [0.0, 0.0, 0.0, 1.0]
],
  "dcmmeta_shape": [104, 104, 60, 358],
  "dcmmeta_slice_dim": 2,
  "dcmmeta_version": 0.6,
  "global": {
    "const": {
      "AcquisitionMatrix": [104, 0, 0, 104],
      "AngioFlag": "N",
      "BitsAllocated": 16,
      "BitsStored": 16,
      "BodyPartExamined": "BRAIN",
      "Columns": 832,
      "EchoNumbers": 1,
      "EchoTime": 37.0,
      "EchoTrainLength": 104,
      "FlipAngle": 52.0,
      "HighBit": 15,
      "ImageOrientationPatient": [0.99878193787872, -0.049069717767, 0.00517719668318, 0.04762553473236, 0.93127968757561, -0.3611785596496],
      "ImagePositionPatient": [-873.73335002377, -765.96318577129, 264.27207724059],
      "ImageType": [
        "ORIGINAL",
        "PRIMARY",
        "P",
        "MB",
        "ND",
        "MOSAIC"
],
      "ImagedNucleus": "1H",
      "ImagingFrequency": 123.25879,
      "InPlanePhaseEncodingDirection": "COL",
      "LargestImagePixelValue": 4095,
      "MRAcquisitionType": "2D",
      "MagneticFieldStrength": 3.0,
      "Manufacturer": "SIEMENS",
      "ManufacturerModelName": "Prisma_fit",
      "Modality": "MR",
      "NumberOfAverages": 1.0,
      "NumberOfPhaseEncodingSteps": 104,
      "PercentPhaseFieldOfView": 100.0,
      "PercentSampling": 100.0,
      "PerformedProcedureStepStartTime": "153756.547000",
      "PhotometricInterpretation": "MONOCHROME2",
      "PixelBandwidth": 2290.0,
      "PixelRepresentation": 0,
      "PixelSpacing": [2.0, 2.0],
      "ProtocolName": "func_task-mario3_run-04",
      "RepetitionTime": 1490.0,
      "RescaleIntercept": -4096.0,
      "RescaleSlope": 2.0,
      "RescaleType": "US",
      "Rows": 832,
      "SAR": 0.04265909815804,
      "SamplesPerPixel": 1,
      "ScanOptions": "FS",
      "ScanningSequence": "EP",
      "SequenceName": "epfid2d1_104",
      "SequenceVariant": [
        "SK",
        "SS"
],
      "SeriesDescription": "func_task-mario3_run-04",
      "SeriesNumber": 20,
      "SeriesTime": "161119.780000",
      "SliceLocation": -41.344811080508,
      "SliceThickness": 2.0,
      "SmallestImagePixelValue": 0,
      "SoftwareVersions": "syngo MR E11",
      "SpacingBetweenSlices": 2.0000000004442,
      "SpecificCharacterSet": "ISO_IR 100",
      "StudyID": "1",
      "StudyTime": "153756.476000",
      "TransmitCoilName": "Body",
      "VariableFlipAngleFlag": "N",
      "WindowCenterWidthExplanation": "Algo1",
      "dBdt": 0.0},
    "slices": {}
  },
  "time": {
    "samples": {
      "AcquisitionNumber": [1, 2, 3, 4, 5, 6, 7, 8, 9, 10, 11, 12, 13, 14, 15, 16, 17, 18, 19, 20, 21, 22, 23, 24, 25, 26, 27, 28, 29, 30, 31, 32, 33, 34, 35, 36, 37, 38, 39, 40, 41, 42, 43, 44, 45, 46, 47, 48, 49, 50, 51, 52, 53, 54, 55, 56, 57, 58, 59, 60, 61, 62, 63, 64, 65, 66, 67, 68, 69, 70, 71, 72, 73, 74, 75, 76, 77, 78, 79, 80, 81, 82, 83, 84, 85, 86, 87, 88, 89, 90, 91, 92, 93, 94, 95, 96, 97, 98, 99, 100, 101, 102, 103, 104, 105, 106, 107, 108, 109, 110, 111, 112, 113, 114, 115, 116, 117, 118, 119, 120, 121, 122, 123, 124, 125, 126, 127, 128, 129, 130, 131, 132, 133, 134, 135, 136, 137, 138, 139, 140, 141, 142, 143, 144, 145, 146, 147, 148, 149, 150, 151, 152, 153, 154, 155, 156, 157, 158, 159, 160, 161, 162, 163, 164, 165, 166, 167, 168, 169, 170, 171, 172, 173, 174, 175, 176, 177, 178, 179, 180, 181, 182, 183, 184, 185, 186, 187, 188, 189, 190, 191, 192, 193, 194, 195, 196, 197, 198, 199, 200, 201, 202, 203, 204, 205, 206, 207, 208, 209, 210, 211, 212, 213, 214, 215, 216, 217, 218, 219, 220, 221, 222, 223, 224, 225, 226, 227, 228, 229, 230, 231, 232, 233, 234, 235, 236, 237, 238, 239, 240, 241, 242, 243, 244, 245, 246, 247, 248, 249, 250, 251, 252, 253, 254, 255, 256, 257, 258, 259, 260, 261, 262, 263, 264, 265, 266, 267, 268, 269, 270, 271, 272, 273, 274, 275, 276, 277, 278, 279, 280, 281, 282, 283, 284, 285, 286, 287, 288, 289, 290, 291, 292, 293, 294, 295, 296, 297, 298, 299, 300, 301, 302, 303, 304, 305, 306, 307, 308, 309, 310, 311, 312, 313, 314, 315, 316, 317, 318, 319, 320, 321, 322, 323, 324, 325, 326, 327, 328, 329, 330, 331, 332, 333, 334, 335, 336, 337, 338, 339, 340, 341, 342, 343, 344, 345, 346, 347, 348, 349, 350, 351, 352, 353, 354, 355, 356, 357, 358],
      "AcquisitionTime": ["161027.767500", "161029.257500", "161030.747500", "161032.237500", "161033.727500", "161035.217500", "161036.707500", "161038.197500", "161039.687500", "161041.177500", "161042.667500", "161044.157500", "161045.647500", "161047.137500", "161048.627500", "161050.117500", "161051.607500", "161053.097500", "161054.587500", "161056.077500", "161057.567500", "161059.057500", "161100.547500", "161102.037500", "161103.527500", "161105.017500", "161106.507500", "161107.997500", "161109.487500", "161110.977500", "161112.467500", "161113.957500", "161115.447500", "161116.937500", "161118.427500", "161119.917500", "161121.407500", "161122.897500", "161124.387500", "161125.877500", "161127.367500", "161128.857500", "161130.347500", "161131.837500", "161133.327500", "161134.817500", "161136.307500", "161137.797500", "161139.287500", "161140.777500", "161142.267500", "161143.757500", "161145.247500", "161146.737500", "161148.227500", "161149.717500", "161151.207500", "161152.697500", "161154.187500", "161155.677500", "161157.167500", "161158.657500", "161200.147500", "161201.637500", "161203.127500", "161204.617500", "161206.107500", "161207.597500", "161209.087500", "161210.577500", "161212.067500", "161213.557500", "161215.047500", "161216.537500", "161218.027500", "161219.517500", "161221.007500", "161222.497500", "161223.987500", "161225.477500", "161226.967500", "161228.457500", "161229.947500", "161231.437500", "161232.927500", "161234.417500", "161235.907500", "161237.397500", "161238.887500", "161240.377500", "161241.867500", "161243.357500", "161244.847500", "161246.337500", "161247.827500", "161249.317500", "161250.807500", "161252.297500", "161253.787500", "161255.277500", "161256.767500", "161258.257500", "161259.747500", "161301.237500", "161302.727500", "161304.217500", "161305.707500", "161307.197500", "161308.687500", "161310.177500", "161311.667500", "161313.157500", "161314.647500", "161316.137500", "161317.627500", "161319.117500", "161320.607500", "161322.097500", "161323.587500", "161325.077500", "161326.567500", "161328.057500", "161329.547500", "161331.037500", "161332.527500", "161334.017500", "161335.507500", "161336.997500", "161338.487500", "161339.977500", "161341.467500", "161342.957500", "161344.447500", "161345.937500", "161347.427500", "161348.917500", "161350.407500", "161351.897500", "161353.387500", "161354.877500", "161356.367500", "161357.857500", "161359.347500", "161400.837500", "161402.327500", "161403.817500", "161405.307500", "161406.797500", "161408.287500", "161409.777500", "161411.267500", "161412.757500", "161414.247500", "161415.737500", "161417.227500", "161418.717500", "161420.207500", "161421.697500", "161423.187500", "161424.677500", "161426.167500", "161427.657500", "161429.147500", "161430.637500", "161432.127500", "161433.617500", "161435.107500", "161436.597500", "161438.087500", "161439.577500", "161441.067500", "161442.557500", "161444.047500", "161445.537500", "161447.027500", "161448.517500", "161450.007500", "161451.497500", "161452.987500", "161454.477500", "161455.967500", "161457.457500", "161458.947500", "161500.437500", "161501.927500", "161503.417500", "161504.907500", "161506.397500", "161507.887500", "161509.377500", "161510.867500", "161512.357500", "161513.847500", "161515.337500", "161516.827500", "161518.317500", "161519.807500", "161521.297500", "161522.787500", "161524.277500", "161525.767500", "161527.257500", "161528.747500", "161530.237500", "161531.727500", "161533.217500", "161534.707500", "161536.197500", "161537.687500", "161539.177500", "161540.667500", "161542.157500", "161543.647500", "161545.137500", "161546.627500", "161548.117500", "161549.607500", "161551.097500", "161552.587500", "161554.077500", "161555.567500", "161557.057500", "161558.547500", "161600.037500", "161601.527500", "161603.017500", "161604.507500", "161605.997500", "161607.487500", "161608.977500", "161610.467500", "161611.957500", "161613.447500", "161614.937500", "161616.427500", "161617.917500", "161619.407500", "161620.897500", "161622.387500", "161623.877500", "161625.367500", "161626.857500", "161628.347500", "161629.837500", "161631.327500", "161632.817500", "161634.307500", "161635.797500", "161637.287500", "161638.777500", "161640.267500", "161641.757500", "161643.247500", "161644.737500", "161646.227500", "161647.717500", "161649.207500", "161650.697500", "161652.187500", "161653.677500", "161655.167500", "161656.657500", "161658.147500", "161659.637500", "161701.127500", "161702.617500", "161704.107500", "161705.597500", "161707.087500", "161708.577500", "161710.067500", "161711.557500", "161713.047500", "161714.537500", "161716.027500", "161717.517500", "161719.007500", "161720.497500", "161721.987500", "161723.477500", "161724.967500", "161726.457500", "161727.947500", "161729.437500", "161730.927500", "161732.417500", "161733.907500", "161735.397500", "161736.887500", "161738.377500", "161739.867500", "161741.357500", "161742.847500", "161744.337500", "161745.827500", "161747.317500", "161748.807500", "161750.297500", "161751.787500", "161753.277500", "161754.767500", "161756.257500", "161757.747500", "161759.237500", "161800.727500", "161802.217500", "161803.707500", "161805.197500", "161806.687500", "161808.177500", "161809.667500", "161811.157500", "161812.647500", "161814.137500", "161815.627500", "161817.117500", "161818.607500", "161820.097500", "161821.587500", "161823.077500", "161824.567500", "161826.057500", "161827.547500", "161829.037500", "161830.527500", "161832.017500", "161833.507500", "161834.997500", "161836.487500", "161837.977500", "161839.467500", "161840.957500", "161842.447500", "161843.937500", "161845.427500", "161846.917500", "161848.407500", "161849.897500", "161851.387500", "161852.877500", "161854.367500", "161855.857500", "161857.347500", "161858.837500", "161900.327500", "161901.817500", "161903.307500", "161904.797500", "161906.287500", "161907.777500", "161909.267500", "161910.757500", "161912.247500", "161913.737500", "161915.227500", "161916.717500", "161918.207500", "161919.697500"],
      "ContentTime": ["161119.782000", "161119.784000", "161119.787000", "161119.789000", "161139.831000", "161139.834000", "161139.836000", "161139.838000", "161139.841000", "161139.844000", "161139.846000", "161139.849000", "161139.851000", "161139.854000", "161139.856000", "161139.859000", "161139.862000", "161139.865000", "161139.876000", "161139.878000", "161139.881000", "161139.883000", "161139.886000", "161139.888000", "161159.841000", "161159.844000", "161159.847000", "161159.849000", "161159.852000", "161159.854000", "161159.856000", "161159.859000", "161159.861000", "161159.864000", "161159.866000", "161159.869000", "161159.871000", "161159.874000", "161159.876000", "161159.879000", "161159.881000", "161159.884000", "161159.886000", "161159.889000", "161219.834000", "161219.837000", "161219.840000", "161219.842000", "161219.845000", "161219.847000", "161219.850000", "161219.852000", "161219.855000", "161219.857000", "161219.860000", "161219.862000", "161219.865000", "161219.867000", "161219.869000", "161219.872000", "161219.879000", "161219.881000", "161219.883000", "161219.886000", "161219.889000", "161239.828000", "161239.831000", "161239.833000", "161239.836000", "161239.838000", "161239.841000", "161239.843000", "161239.855000", "161239.857000", "161239.860000", "161239.862000", "161239.865000", "161239.867000", "161239.870000", "161239.872000", "161239.874000", "161239.877000", "161239.879000", "161239.882000", "161239.884000", "161320.311000", "161320.313000", "161320.316000", "161320.319000", "161320.321000", "161320.323000", "161320.326000", "161320.328000", "161320.331000", "161320.333000", "161320.336000", "161320.338000", "161320.341000", "161320.343000", "161320.346000", "161320.348000", "161320.351000", "161320.353000", "161320.356000", "161320.358000", "161320.361000", "161320.363000", "161320.366000", "161320.368000", "161320.371000", "161320.373000", "161320.376000", "161320.378000", "161320.381000", "161320.383000", "161359.850000", "161359.852000", "161359.855000", "161359.857000", "161359.860000", "161359.862000", "161359.865000", "161359.868000", "161359.870000", "161359.872000", "161359.875000", "161359.878000", "161359.880000", "161359.883000", "161359.885000", "161359.888000", "161359.891000", "161359.894000", "161359.897000", "161359.899000", "161359.902000", "161359.904000", "161359.907000", "161359.910000", "161359.912000", "161359.915000", "161439.869000", "161439.871000", "161439.874000", "161439.876000", "161439.879000", "161439.881000", "161439.884000", "161439.886000", "161439.889000", "161439.891000", "161439.894000", "161439.896000", "161439.899000", "161439.901000", "161439.904000", "161439.906000", "161439.909000", "161439.911000", "161439.914000", "161439.917000", "161439.919000", "161439.921000", "161439.924000", "161439.927000", "161439.929000", "161439.932000", "161439.934000", "161519.864000", "161519.866000", "161519.869000", "161519.871000", "161519.874000", "161519.876000", "161519.879000", "161519.881000", "161519.884000", "161519.887000", "161519.889000", "161519.891000", "161519.894000", "161519.897000", "161519.899000", "161519.902000", "161519.904000", "161519.907000", "161519.909000", "161519.912000", "161519.924000", "161519.927000", "161519.929000", "161519.932000", "161519.934000", "161519.937000", "161519.939000", "161559.878000", "161559.881000", "161559.883000", "161559.886000", "161559.888000", "161559.891000", "161559.893000", "161559.896000", "161559.898000", "161559.901000", "161559.904000", "161559.906000", "161559.909000", "161559.911000", "161559.914000", "161559.916000", "161559.919000", "161559.921000", "161559.924000", "161559.926000", "161559.929000", "161559.931000", "161559.934000", "161559.936000", "161559.939000", "161559.941000", "161559.944000", "161639.858000", "161639.860000", "161639.863000", "161639.865000", "161639.868000", "161639.870000", "161639.873000", "161639.875000", "161639.878000", "161639.880000", "161639.883000", "161639.885000", "161639.888000", "161639.890000", "161639.893000", "161639.895000", "161639.898000", "161639.900000", "161639.903000", "161639.905000", "161639.908000", "161639.910000", "161639.913000", "161639.915000", "161639.918000", "161639.920000", "161639.923000", "161719.859000", "161719.862000", "161719.865000", "161719.867000", "161719.870000", "161719.872000", "161719.875000", "161719.877000", "161719.880000", "161719.882000", "161719.884000", "161719.887000", "161719.889000", "161719.892000", "161719.894000", "161719.897000", "161719.899000", "161719.902000", "161719.904000", "161719.907000", "161719.909000", "161719.912000", "161719.914000", "161719.917000", "161719.919000", "161719.922000", "161719.924000", "161759.885000", "161759.888000", "161759.890000", "161759.893000", "161759.895000", "161759.898000", "161759.900000", "161759.903000", "161759.905000", "161759.908000", "161759.910000", "161759.913000", "161759.915000", "161759.918000", "161759.920000", "161759.922000", "161759.925000", "161759.927000", "161759.930000", "161759.932000", "161759.935000", "161759.937000", "161759.940000", "161759.942000", "161759.945000", "161759.947000", "161839.853000", "161839.856000", "161839.858000", "161839.861000", "161839.863000", "161839.866000", "161839.868000", "161839.871000", "161839.874000", "161839.877000", "161839.879000", "161839.882000", "161839.884000", "161839.886000", "161839.889000", "161839.891000", "161839.894000", "161839.896000", "161839.899000", "161839.901000", "161839.904000", "161839.906000", "161839.909000", "161839.911000", "161839.914000", "161839.916000", "161839.919000", "161919.867000", "161919.870000", "161919.872000", "161919.875000", "161919.877000", "161919.879000", "161919.882000", "161919.885000", "161919.887000", "161919.890000", "161919.892000", "161919.894000", "161919.897000", "161919.899000", "161919.902000", "161919.904000", "161919.907000", "161919.909000", "161919.912000", "161919.914000", "161919.917000", "161919.920000", "161919.922000", "161919.925000", "161919.927000", "161919.930000", "161919.932000", "161922.490000", "161922.493000"],
      "InstanceCreationTime": ["161119.782000", "161119.784000", "161119.787000", "161119.789000", "161139.831000", "161139.834000", "161139.836000", "161139.838000", "161139.841000", "161139.844000", "161139.846000", "161139.849000", "161139.851000", "161139.854000", "161139.856000", "161139.859000", "161139.862000", "161139.865000", "161139.876000", "161139.878000", "161139.881000", "161139.883000", "161139.886000", "161139.888000", "161159.841000", "161159.844000", "161159.847000", "161159.849000", "161159.852000", "161159.854000", "161159.856000", "161159.859000", "161159.861000", "161159.864000", "161159.866000", "161159.869000", "161159.871000", "161159.874000", "161159.876000", "161159.879000", "161159.881000", "161159.884000", "161159.886000", "161159.889000", "161219.834000", "161219.837000", "161219.840000", "161219.842000", "161219.845000", "161219.847000", "161219.850000", "161219.852000", "161219.855000", "161219.857000", "161219.860000", "161219.862000", "161219.865000", "161219.867000", "161219.869000", "161219.872000", "161219.879000", "161219.881000", "161219.883000", "161219.886000", "161219.889000", "161239.828000", "161239.831000", "161239.833000", "161239.836000", "161239.838000", "161239.841000", "161239.843000", "161239.855000", "161239.857000", "161239.860000", "161239.862000", "161239.865000", "161239.867000", "161239.870000", "161239.872000", "161239.874000", "161239.877000", "161239.879000", "161239.882000", "161239.884000", "161320.311000", "161320.313000", "161320.316000", "161320.319000", "161320.321000", "161320.323000", "161320.326000", "161320.328000", "161320.331000", "161320.333000", "161320.336000", "161320.338000", "161320.341000", "161320.343000", "161320.346000", "161320.348000", "161320.351000", "161320.353000", "161320.356000", "161320.358000", "161320.361000", "161320.363000", "161320.366000", "161320.368000", "161320.371000", "161320.373000", "161320.376000", "161320.378000", "161320.381000", "161320.383000", "161359.850000", "161359.852000", "161359.855000", "161359.857000", "161359.860000", "161359.862000", "161359.865000", "161359.868000", "161359.870000", "161359.872000", "161359.875000", "161359.878000", "161359.880000", "161359.883000", "161359.885000", "161359.888000", "161359.891000", "161359.894000", "161359.897000", "161359.899000", "161359.902000", "161359.904000", "161359.907000", "161359.910000", "161359.912000", "161359.915000", "161439.869000", "161439.871000", "161439.874000", "161439.876000", "161439.879000", "161439.881000", "161439.884000", "161439.886000", "161439.889000", "161439.891000", "161439.894000", "161439.896000", "161439.899000", "161439.901000", "161439.904000", "161439.906000", "161439.909000", "161439.911000", "161439.914000", "161439.917000", "161439.919000", "161439.921000", "161439.924000", "161439.927000", "161439.929000", "161439.932000", "161439.934000", "161519.864000", "161519.866000", "161519.869000", "161519.871000", "161519.874000", "161519.876000", "161519.879000", "161519.881000", "161519.884000", "161519.887000", "161519.889000", "161519.891000", "161519.894000", "161519.897000", "161519.899000", "161519.902000", "161519.904000", "161519.907000", "161519.909000", "161519.912000", "161519.924000", "161519.927000", "161519.929000", "161519.932000", "161519.934000", "161519.937000", "161519.939000", "161559.878000", "161559.881000", "161559.883000", "161559.886000", "161559.888000", "161559.891000", "161559.893000", "161559.896000", "161559.898000", "161559.901000", "161559.904000", "161559.906000", "161559.909000", "161559.911000", "161559.914000", "161559.916000", "161559.919000", "161559.921000", "161559.924000", "161559.926000", "161559.929000", "161559.931000", "161559.934000", "161559.936000", "161559.939000", "161559.941000", "161559.944000", "161639.858000", "161639.860000", "161639.863000", "161639.865000", "161639.868000", "161639.870000", "161639.873000", "161639.875000", "161639.878000", "161639.880000", "161639.883000", "161639.885000", "161639.888000", "161639.890000", "161639.893000", "161639.895000", "161639.898000", "161639.900000", "161639.903000", "161639.905000", "161639.908000", "161639.910000", "161639.913000", "161639.915000", "161639.918000", "161639.920000", "161639.923000", "161719.859000", "161719.862000", "161719.865000", "161719.867000", "161719.870000", "161719.872000", "161719.875000", "161719.877000", "161719.880000", "161719.882000", "161719.884000", "161719.887000", "161719.889000", "161719.892000", "161719.894000", "161719.897000", "161719.899000", "161719.902000", "161719.904000", "161719.907000", "161719.909000", "161719.912000", "161719.914000", "161719.917000", "161719.919000", "161719.922000", "161719.924000", "161759.885000", "161759.888000", "161759.890000", "161759.893000", "161759.895000", "161759.898000", "161759.900000", "161759.903000", "161759.905000", "161759.908000", "161759.910000", "161759.913000", "161759.915000", "161759.918000", "161759.920000", "161759.922000", "161759.925000", "161759.927000", "161759.930000", "161759.932000", "161759.935000", "161759.937000", "161759.940000", "161759.942000", "161759.945000", "161759.947000", "161839.853000", "161839.856000", "161839.858000", "161839.861000", "161839.863000", "161839.866000", "161839.868000", "161839.871000", "161839.874000", "161839.877000", "161839.879000", "161839.882000", "161839.884000", "161839.886000", "161839.889000", "161839.891000", "161839.894000", "161839.896000", "161839.899000", "161839.901000", "161839.904000", "161839.906000", "161839.909000", "161839.911000", "161839.914000", "161839.916000", "161839.919000", "161919.867000", "161919.870000", "161919.872000", "161919.875000", "161919.877000", "161919.879000", "161919.882000", "161919.885000", "161919.887000", "161919.890000", "161919.892000", "161919.894000", "161919.897000", "161919.899000", "161919.902000", "161919.904000", "161919.907000", "161919.909000", "161919.912000", "161919.914000", "161919.917000", "161919.920000", "161919.922000", "161919.925000", "161919.927000", "161919.930000", "161919.932000", "161922.490000", "161922.493000"],
      "InstanceNumber": [1, 2, 3, 4, 5, 6, 7, 8, 9, 10, 11, 12, 13, 14, 15, 16, 17, 18, 19, 20, 21, 22, 23, 24, 25, 26, 27, 28, 29, 30, 31, 32, 33, 34, 35, 36, 37, 38, 39, 40, 41, 42, 43, 44, 45, 46, 47, 48, 49, 50, 51, 52, 53, 54, 55, 56, 57, 58, 59, 60, 61, 62, 63, 64, 65, 66, 67, 68, 69, 70, 71, 72, 73, 74, 75, 76, 77, 78, 79, 80, 81, 82, 83, 84, 85, 86, 87, 88, 89, 90, 91, 92, 93, 94, 95, 96, 97, 98, 99, 100, 101, 102, 103, 104, 105, 106, 107, 108, 109, 110, 111, 112, 113, 114, 115, 116, 117, 118, 119, 120, 121, 122, 123, 124, 125, 126, 127, 128, 129, 130, 131, 132, 133, 134, 135, 136, 137, 138, 139, 140, 141, 142, 143, 144, 145, 146, 147, 148, 149, 150, 151, 152, 153, 154, 155, 156, 157, 158, 159, 160, 161, 162, 163, 164, 165, 166, 167, 168, 169, 170, 171, 172, 173, 174, 175, 176, 177, 178, 179, 180, 181, 182, 183, 184, 185, 186, 187, 188, 189, 190, 191, 192, 193, 194, 195, 196, 197, 198, 199, 200, 201, 202, 203, 204, 205, 206, 207, 208, 209, 210, 211, 212, 213, 214, 215, 216, 217, 218, 219, 220, 221, 222, 223, 224, 225, 226, 227, 228, 229, 230, 231, 232, 233, 234, 235, 236, 237, 238, 239, 240, 241, 242, 243, 244, 245, 246, 247, 248, 249, 250, 251, 252, 253, 254, 255, 256, 257, 258, 259, 260, 261, 262, 263, 264, 265, 266, 267, 268, 269, 270, 271, 272, 273, 274, 275, 276, 277, 278, 279, 280, 281, 282, 283, 284, 285, 286, 287, 288, 289, 290, 291, 292, 293, 294, 295, 296, 297, 298, 299, 300, 301, 302, 303, 304, 305, 306, 307, 308, 309, 310, 311, 312, 313, 314, 315, 316, 317, 318, 319, 320, 321, 322, 323, 324, 325, 326, 327, 328, 329, 330, 331, 332, 333, 334, 335, 336, 337, 338, 339, 340, 341, 342, 343, 344, 345, 346, 347, 348, 349, 350, 351, 352, 353, 354, 355, 356, 357, 358],
