{
  "AcquisitionMatrixPE": 104,
  "AcquisitionNumber": 1,
  "AcquisitionTime": "11:31:18.657500",
  "BandwidthPerPixelPhaseEncode": 17.17,
  "BaseResolution": 104,
  "BodyPartExamined": "BRAIN",
  "CoilCombinationMethod": "Sum of Squares",
  "ConsistencyInfo": "N4_VE11C_LATEST_20160120",
  "ConversionSoftware": "dcm2niix",
  "ConversionSoftwareVersion": "v1.0.20220505",
  "DerivedVendorReportedEchoSpacing": 0.000560011,
  "DeviceSerialNumber": "167006",
  "DwellTime": 2.1e-06,
  "EchoTime": 0.037,
  "EchoTrainLength": 104,
  "EffectiveEchoSpacing": 0.000560011,
  "FlipAngle": 52,
  "HeudiconvVersion": "0.5.3.post811+g6206e14",
  "ImageComments": "Unaliased MB4/PE3/LB",
  "ImageOrientationPatientDICOM": [0.994527, 0.100228, 0.0294971, -0.0861354, 0.946352, -0.311446],
  "ImageOrientationText": "Tra>Cor(-17.9)>Sag(3.4)",
  "ImageType": [
    "ORIGINAL",
    "PRIMARY",
    "M",
    "MB",
    "ND",
    "MOSAIC"
],
  "ImagingFrequency": 123.26,
  "InPlanePhaseEncodingDirectionDICOM": "COL",
  "InstitutionAddress": "Chemin Queen-Mary 4565,Montreal,District,CA,H3W 1W5",
  "InstitutionName": "IUGM",
  "InstitutionalDepartmentName": "Department",
  "MRAcquisitionType": "2D",
  "MagneticFieldStrength": 3,
  "Manufacturer": "Siemens",
  "ManufacturersModelName": "Prisma_fit",
  "MatrixCoilMode": "SENSE",
  "Modality": "MR",
  "MultibandAccelerationFactor": 4,
  "PartialFourier": 1,
  "PatientPosition": "HFS",
  "PercentPhaseFOV": 100,
  "PercentSampling": 100,
  "PhaseEncodingDirection": "j",
  "PhaseEncodingSteps": 104,
  "PhaseResolution": 1,
  "PixelBandwidth": 2290,
  "ProcedureStepDescription": "games^mario3",
  "ProtocolName": "func_task-mario3_run-02",
  "PulseSequenceDetails": "%CustomerSeq%\\cmrr_mbep2d_bold",
  "ReceiveCoilActiveElements": "HC1-7;NC1,2",
  "ReceiveCoilName": "HeadNeck_64",
  "ReconMatrixPE": 104,
  "RepetitionTime": 1.49,
  "SAR": 0.0668929,
  "ScanOptions": "FS",
  "ScanningSequence": "EP",
  "SequenceName": "epfid2d1_104",
  "SequenceVariant": "SK\\SS",
  "SeriesDescription": "func_task-mario3_run-02",
  "SeriesNumber": 13,
  "ShimSetting": [622, -7195, -8782, 671, 107, 20, -26, 20],
  "SliceThickness": 2,
  "SliceTiming": [0, 0.7825, 0.0975, 0.88, 0.195, 0.98, 0.2925, 1.0775, 0.39, 1.175, 0.49, 1.2725, 0.5875, 1.37, 0.685, 0, 0.7825, 0.0975, 0.88, 0.195, 0.98, 0.2925, 1.0775, 0.39, 1.175, 0.49, 1.2725, 0.5875, 1.37, 0.685, 0, 0.7825, 0.0975, 0.88, 0.195, 0.98, 0.2925, 1.0775, 0.39, 1.175, 0.49, 1.2725, 0.5875, 1.37, 0.685, 0, 0.7825, 0.0975, 0.88, 0.195, 0.98, 0.2925, 1.0775, 0.39, 1.175, 0.49, 1.2725, 0.5875, 1.37, 0.685],
  "SoftwareVersions": "syngo MR E11",
  "SpacingBetweenSlices": 2,
  "StationName": "MRC35049",
  "TaskName": "mario3",
  "TotalReadoutTime": 0.0576811,
  "TxRefAmp": 291.322,
  "WipMemBlock": "5461a2a1-729c-468d-844a-695c776fb61e||Sequence: R017 ve11c/master r/75a17815+; Jun 28 2022 16:32:11 by eja",
  "dcmmeta_affine": [
    [-1.9890543222427368, -0.1722707599401474, 0.1182602196931839, 110.77277374267578],
    [-0.200455442070961, 1.8927042484283447, -0.6144006252288818, -52.15912628173828],
    [0.05899418517947197, 0.6228910684585571, 1.8996121883392334, -52.513362884521484],
    [0.0, 0.0, 0.0, 1.0]
],
  "dcmmeta_reorient_transform": [
    [0.0, -1.0, 0.0, 103.0],
    [1.0, 0.0, 0.0, 0.0],
    [0.0, 0.0, 1.0, 0.0],
    [0.0, 0.0, 0.0, 1.0]
],
  "dcmmeta_shape": [104, 104, 60, 600],
  "dcmmeta_slice_dim": 2,
  "dcmmeta_version": 0.6,
  "global": {
    "const": {
      "AcquisitionMatrix": [104, 0, 0, 104],
      "AngioFlag": "N",
      "BitsAllocated": 16,
      "BitsStored": 16,
      "BodyPartExamined": "BRAIN",
      "Columns": 832,
      "EchoNumbers": 1,
      "EchoTime": 37.0,
      "EchoTrainLength": 104,
      "FlipAngle": 52.0,
      "HighBit": 15,
      "ImageOrientationPatient": [0.99452718727261, 0.10022771750882, 0.02949709169753, -0.0861353799, 0.94635213869673, -0.3114455424526],
      "ImagePositionPatient": [-754.33812475284, -904.69955068406, 216.90289027933],
      "ImageType": [
        "ORIGINAL",
        "PRIMARY",
        "M",
        "MB",
        "ND",
        "MOSAIC"
],
      "ImagedNucleus": "1H",
      "ImagingFrequency": 123.260216,
      "InPlanePhaseEncodingDirection": "COL",
      "MRAcquisitionType": "2D",
      "MagneticFieldStrength": 3.0,
      "Manufacturer": "SIEMENS",
      "ManufacturerModelName": "Prisma_fit",
      "Modality": "MR",
      "NumberOfAverages": 1.0,
      "NumberOfPhaseEncodingSteps": 104,
      "PercentPhaseFieldOfView": 100.0,
      "PercentSampling": 100.0,
      "PerformedProcedureStepStartTime": "111840.497000",
      "PhotometricInterpretation": "MONOCHROME2",
      "PixelBandwidth": 2290.0,
      "PixelRepresentation": 0,
      "PixelSpacing": [2.0, 2.0],
      "ProtocolName": "func_task-mario3_run-02",
      "RepetitionTime": 1490.0,
      "Rows": 832,
      "SAR": 0.06689285688671,
      "SamplesPerPixel": 1,
      "ScanOptions": "FS",
      "ScanningSequence": "EP",
      "SequenceName": "epfid2d1_104",
      "SequenceVariant": [
        "SK",
        "SS"
],
      "SeriesDescription": "func_task-mario3_run-02",
      "SeriesNumber": 13,
      "SeriesTime": "113245.259000",
      "SliceLocation": -27.304205771601,
      "SliceThickness": 2.0,
      "SmallestImagePixelValue": 0,
      "SoftwareVersions": "syngo MR E11",
      "SpacingBetweenSlices": 1.999999961631,
      "SpecificCharacterSet": "ISO_IR 100",
      "StudyID": "2",
      "StudyTime": "111840.440000",
      "TransmitCoilName": "Body",
      "VariableFlipAngleFlag": "N",
      "WindowCenterWidthExplanation": "Algo1",
      "dBdt": 0.0},
    "slices": {}
  },
  "time": {
    "samples": {
      "AcquisitionNumber": [1, 2, 3, 4, 5, 6, 7, 8, 9, 10, 11, 12, 13, 14, 15, 16, 17, 18, 19, 20, 21, 22, 23, 24, 25, 26, 27, 28, 29, 30, 31, 32, 33, 34, 35, 36, 37, 38, 39, 40, 41, 42, 43, 44, 45, 46, 47, 48, 49, 50, 51, 52, 53, 54, 55, 56, 57, 58, 59, 60, 61, 62, 63, 64, 65, 66, 67, 68, 69, 70, 71, 72, 73, 74, 75, 76, 77, 78, 79, 80, 81, 82, 83, 84, 85, 86, 87, 88, 89, 90, 91, 92, 93, 94, 95, 96, 97, 98, 99, 100, 101, 102, 103, 104, 105, 106, 107, 108, 109, 110, 111, 112, 113, 114, 115, 116, 117, 118, 119, 120, 121, 122, 123, 124, 125, 126, 127, 128, 129, 130, 131, 132, 133, 134, 135, 136, 137, 138, 139, 140, 141, 142, 143, 144, 145, 146, 147, 148, 149, 150, 151, 152, 153, 154, 155, 156, 157, 158, 159, 160, 161, 162, 163, 164, 165, 166, 167, 168, 169, 170, 171, 172, 173, 174, 175, 176, 177, 178, 179, 180, 181, 182, 183, 184, 185, 186, 187, 188, 189, 190, 191, 192, 193, 194, 195, 196, 197, 198, 199, 200, 201, 202, 203, 204, 205, 206, 207, 208, 209, 210, 211, 212, 213, 214, 215, 216, 217, 218, 219, 220, 221, 222, 223, 224, 225, 226, 227, 228, 229, 230, 231, 232, 233, 234, 235, 236, 237, 238, 239, 240, 241, 242, 243, 244, 245, 246, 247, 248, 249, 250, 251, 252, 253, 254, 255, 256, 257, 258, 259, 260, 261, 262, 263, 264, 265, 266, 267, 268, 269, 270, 271, 272, 273, 274, 275, 276, 277, 278, 279, 280, 281, 282, 283, 284, 285, 286, 287, 288, 289, 290, 291, 292, 293, 294, 295, 296, 297, 298, 299, 300, 301, 302, 303, 304, 305, 306, 307, 308, 309, 310, 311, 312, 313, 314, 315, 316, 317, 318, 319, 320, 321, 322, 323, 324, 325, 326, 327, 328, 329, 330, 331, 332, 333, 334, 335, 336, 337, 338, 339, 340, 341, 342, 343, 344, 345, 346, 347, 348, 349, 350, 351, 352, 353, 354, 355, 356, 357, 358, 359, 360, 361, 362, 363, 364, 365, 366, 367, 368, 369, 370, 371, 372, 373, 374, 375, 376, 377, 378, 379, 380, 381, 382, 383, 384, 385, 386, 387, 388, 389, 390, 391, 392, 393, 394, 395, 396, 397, 398, 399, 400, 401, 402, 403, 404, 405, 406, 407, 408, 409, 410, 411, 412, 413, 414, 415, 416, 417, 418, 419, 420, 421, 422, 423, 424, 425, 426, 427, 428, 429, 430, 431, 432, 433, 434, 435, 436, 437, 438, 439, 440, 441, 442, 443, 444, 445, 446, 447, 448, 449, 450, 451, 452, 453, 454, 455, 456, 457, 458, 459, 460, 461, 462, 463, 464, 465, 466, 467, 468, 469, 470, 471, 472, 473, 474, 475, 476, 477, 478, 479, 480, 481, 482, 483, 484, 485, 486, 487, 488, 489, 490, 491, 492, 493, 494, 495, 496, 497, 498, 499, 500, 501, 502, 503, 504, 505, 506, 507, 508, 509, 510, 511, 512, 513, 514, 515, 516, 517, 518, 519, 520, 521, 522, 523, 524, 525, 526, 527, 528, 529, 530, 531, 532, 533, 534, 535, 536, 537, 538, 539, 540, 541, 542, 543, 544, 545, 546, 547, 548, 549, 550, 551, 552, 553, 554, 555, 556, 557, 558, 559, 560, 561, 562, 563, 564, 565, 566, 567, 568, 569, 570, 571, 572, 573, 574, 575, 576, 577, 578, 579, 580, 581, 582, 583, 584, 585, 586, 587, 588, 589, 590, 591, 592, 593, 594, 595, 596, 597, 598, 599, 600],
      "AcquisitionTime": ["113118.657500", "113120.147500", "113121.637500", "113123.127500", "113124.617500", "113126.107500", "113127.597500", "113129.087500", "113130.577500", "113132.067500", "113133.557500", "113135.047500", "113136.537500", "113138.027500", "113139.517500", "113141.007500", "113142.497500", "113143.987500", "113145.477500", "113146.967500", "113148.457500", "113149.947500", "113151.437500", "113152.927500", "113154.417500", "113155.907500", "113157.397500", "113158.887500", "113200.377500", "113201.867500", "113203.357500", "113204.847500", "113206.337500", "113207.827500", "113209.317500", "113210.807500", "113212.297500", "113213.787500", "113215.277500", "113216.767500", "113218.257500", "113219.747500", "113221.237500", "113222.727500", "113224.217500", "113225.707500", "113227.197500", "113228.687500", "113230.177500", "113231.667500", "113233.157500", "113234.647500", "113236.137500", "113237.627500", "113239.117500", "113240.607500", "113242.097500", "113243.587500", "113245.077500", "113246.567500", "113248.057500", "113249.547500", "113251.037500", "113252.527500", "113254.017500", "113255.507500", "113256.997500", "113258.487500", "113259.977500", "113301.467500", "113302.957500", "113304.447500", "113305.937500", "113307.427500", "113308.917500", "113310.407500", "113311.897500", "113313.387500", "113314.877500", "113316.367500", "113317.857500", "113319.347500", "113320.837500", "113322.327500", "113323.817500", "113325.307500", "113326.797500", "113328.287500", "113329.777500", "113331.267500", "113332.757500", "113334.247500", "113335.737500", "113337.227500", "113338.717500", "113340.207500", "113341.697500", "113343.187500", "113344.677500", "113346.167500", "113347.657500", "113349.147500", "113350.637500", "113352.127500", "113353.617500", "113355.107500", "113356.597500", "113358.087500", "113359.577500", "113401.067500", "113402.557500", "113404.047500", "113405.537500", "113407.027500", "113408.517500", "113410.007500", "113411.497500", "113412.987500", "113414.477500", "113415.967500", "113417.457500", "113418.947500", "113420.437500", "113421.927500", "113423.417500", "113424.907500", "113426.397500", "113427.887500", "113429.377500", "113430.867500", "113432.357500", "113433.847500", "113435.337500", "113436.827500", "113438.317500", "113439.807500", "113441.297500", "113442.787500", "113444.277500", "113445.767500", "113447.257500", "113448.747500", "113450.237500", "113451.727500", "113453.217500", "113454.707500", "113456.197500", "113457.687500", "113459.177500", "113500.667500", "113502.157500", "113503.647500", "113505.137500", "113506.627500", "113508.117500", "113509.607500", "113511.097500", "113512.587500", "113514.077500", "113515.567500", "113517.057500", "113518.547500", "113520.037500", "113521.527500", "113523.017500", "113524.507500", "113525.997500", "113527.487500", "113528.977500", "113530.467500", "113531.957500", "113533.447500", "113534.937500", "113536.427500", "113537.917500", "113539.407500", "113540.897500", "113542.387500", "113543.877500", "113545.367500", "113546.857500", "113548.347500", "113549.837500", "113551.327500", "113552.817500", "113554.307500", "113555.797500", "113557.287500", "113558.777500", "113600.267500", "113601.757500", "113603.247500", "113604.737500", "113606.227500", "113607.717500", "113609.207500", "113610.697500", "113612.187500", "113613.677500", "113615.167500", "113616.657500", "113618.147500", "113619.637500", "113621.127500", "113622.617500", "113624.107500", "113625.597500", "113627.087500", "113628.577500", "113630.067500", "113631.557500", "113633.047500", "113634.537500", "113636.027500", "113637.517500", "113639.007500", "113640.497500", "113641.987500", "113643.477500", "113644.967500", "113646.457500", "113647.947500", "113649.437500", "113650.927500", "113652.417500", "113653.907500", "113655.397500", "113656.887500", "113658.377500", "113659.867500", "113701.357500", "113702.847500", "113704.337500", "113705.827500", "113707.317500", "113708.807500", "113710.297500", "113711.787500", "113713.277500", "113714.767500", "113716.257500", "113717.747500", "113719.237500", "113720.727500", "113722.217500", "113723.707500", "113725.197500", "113726.687500", "113728.177500", "113729.667500", "113731.157500", "113732.647500", "113734.137500", "113735.627500", "113737.117500", "113738.607500", "113740.097500", "113741.587500", "113743.077500", "113744.567500", "113746.057500", "113747.547500", "113749.037500", "113750.527500", "113752.017500", "113753.507500", "113754.997500", "113756.487500", "113757.977500", "113759.467500", "113800.957500", "113802.447500", "113803.937500", "113805.427500", "113806.917500", "113808.407500", "113809.897500", "113811.387500", "113812.877500", "113814.367500", "113815.857500", "113817.347500", "113818.837500", "113820.327500", "113821.817500", "113823.307500", "113824.797500", "113826.287500", "113827.777500", "113829.267500", "113830.757500", "113832.247500", "113833.737500", "113835.227500", "113836.717500", "113838.207500", "113839.697500", "113841.187500", "113842.677500", "113844.167500", "113845.657500", "113847.147500", "113848.637500", "113850.127500", "113851.617500", "113853.107500", "113854.597500", "113856.087500", "113857.577500", "113859.067500", "113900.557500", "113902.047500", "113903.537500", "113905.027500", "113906.517500", "113908.007500", "113909.497500", "113910.987500", "113912.477500", "113913.967500", "113915.457500", "113916.947500", "113918.437500", "113919.927500", "113921.417500", "113922.907500", "113924.397500", "113925.887500", "113927.377500", "113928.867500", "113930.357500", "113931.847500", "113933.337500", "113934.827500", "113936.317500", "113937.807500", "113939.297500", "113940.787500", "113942.277500", "113943.767500", "113945.257500", "113946.747500", "113948.237500", "113949.727500", "113951.217500", "113952.707500", "113954.197500", "113955.687500", "113957.177500", "113958.667500", "114000.157500", "114001.647500", "114003.137500", "114004.627500", "114006.117500", "114007.607500", "114009.097500", "114010.587500", "114012.077500", "114013.567500", "114015.057500", "114016.547500", "114018.037500", "114019.527500", "114021.017500", "114022.507500", "114023.997500", "114025.487500", "114026.977500", "114028.467500", "114029.957500", "114031.447500", "114032.937500", "114034.427500", "114035.917500", "114037.407500", "114038.897500", "114040.387500", "114041.877500", "114043.367500", "114044.857500", "114046.347500", "114047.837500", "114049.327500", "114050.817500", "114052.307500", "114053.797500", "114055.287500", "114056.777500", "114058.267500", "114059.757500", "114101.247500", "114102.737500", "114104.227500", "114105.717500", "114107.207500", "114108.697500", "114110.187500", "114111.677500", "114113.167500", "114114.657500", "114116.147500", "114117.637500", "114119.127500", "114120.617500", "114122.107500", "114123.597500", "114125.087500", "114126.577500", "114128.067500", "114129.557500", "114131.047500", "114132.537500", "114134.027500", "114135.517500", "114137.007500", "114138.497500", "114139.987500", "114141.477500", "114142.967500", "114144.457500", "114145.947500", "114147.437500", "114148.927500", "114150.417500", "114151.907500", "114153.397500", "114154.887500", "114156.377500", "114157.867500", "114159.357500", "114200.847500", "114202.337500", "114203.827500", "114205.317500", "114206.807500", "114208.297500", "114209.787500", "114211.277500", "114212.767500", "114214.257500", "114215.747500", "114217.237500", "114218.727500", "114220.217500", "114221.707500", "114223.197500", "114224.687500", "114226.177500", "114227.667500", "114229.157500", "114230.647500", "114232.137500", "114233.627500", "114235.117500", "114236.607500", "114238.097500", "114239.587500", "114241.077500", "114242.567500", "114244.057500", "114245.547500", "114247.037500", "114248.527500", "114250.017500", "114251.507500", "114252.997500", "114254.487500", "114255.977500", "114257.467500", "114258.957500", "114300.447500", "114301.937500", "114303.427500", "114304.917500", "114306.407500", "114307.897500", "114309.387500", "114310.877500", "114312.367500", "114313.857500", "114315.347500", "114316.837500", "114318.327500", "114319.817500", "114321.307500", "114322.797500", "114324.287500", "114325.777500", "114327.267500", "114328.757500", "114330.247500", "114331.737500", "114333.227500", "114334.717500", "114336.207500", "114337.697500", "114339.187500", "114340.677500", "114342.167500", "114343.657500", "114345.147500", "114346.637500", "114348.127500", "114349.617500", "114351.107500", "114352.597500", "114354.087500", "114355.577500", "114357.067500", "114358.557500", "114400.047500", "114401.537500", "114403.027500", "114404.517500", "114406.007500", "114407.497500", "114408.987500", "114410.477500", "114411.967500", "114413.457500", "114414.947500", "114416.437500", "114417.927500", "114419.417500", "114420.907500", "114422.397500", "114423.887500", "114425.377500", "114426.867500", "114428.357500", "114429.847500", "114431.337500", "114432.827500", "114434.317500", "114435.807500", "114437.297500", "114438.787500", "114440.277500", "114441.767500", "114443.257500", "114444.747500", "114446.237500", "114447.727500", "114449.217500", "114450.707500", "114452.197500", "114453.687500", "114455.177500", "114456.667500", "114458.157500", "114459.647500", "114501.137500", "114502.627500", "114504.117500", "114505.607500", "114507.097500", "114508.587500", "114510.077500", "114511.567500", "114513.057500", "114514.547500", "114516.037500", "114517.527500", "114519.017500", "114520.507500", "114521.997500", "114523.487500", "114524.977500", "114526.467500", "114527.957500", "114529.447500", "114530.937500", "114532.427500", "114533.917500", "114535.407500", "114536.897500", "114538.387500", "114539.877500", "114541.367500", "114542.857500", "114544.347500", "114545.837500", "114547.327500", "114548.817500", "114550.307500", "114551.797500", "114553.287500", "114554.777500", "114556.267500", "114557.757500", "114559.247500", "114600.737500", "114602.227500", "114603.717500", "114605.207500", "114606.697500", "114608.187500", "114609.677500", "114611.167500"],
      "ContentTime": ["113245.262000", "113245.266000", "113245.269000", "113245.273000", "113245.276000", "113245.280000", "113245.283000", "113245.287000", "113245.290000", "113245.293000", "113245.296000", "113245.300000", "113245.303000", "113245.306000", "113245.310000", "113245.313000", "113245.316000", "113245.320000", "113245.323000", "113245.326000", "113245.330000", "113245.333000", "113245.337000", "113245.349000", "113245.352000", "113245.355000", "113245.359000", "113245.362000", "113245.365000", "113245.369000", "113245.372000", "113245.375000", "113245.379000", "113245.382000", "113245.385000", "113245.389000", "113245.392000", "113245.395000", "113245.399000", "113305.226000", "113305.230000", "113305.233000", "113305.237000", "113305.240000", "113305.243000", "113305.247000", "113305.250000", "113305.253000", "113305.257000", "113305.260000", "113305.263000", "113305.266000", "113305.270000", "113305.273000", "113305.277000", "113305.280000", "113305.283000", "113305.286000", "113305.290000", "113325.226000", "113325.230000", "113325.233000", "113325.237000", "113325.240000", "113325.243000", "113325.247000", "113325.250000", "113325.253000", "113325.257000", "113325.260000", "113325.263000", "113325.267000", "113325.270000", "113325.273000", "113325.277000", "113325.280000", "113325.283000", "113325.287000", "113325.290000", "113405.225000", "113405.229000", "113405.232000", "113405.236000", "113405.239000", "113405.253000", "113405.256000", "113405.259000", "113405.263000", "113405.266000", "113405.269000", "113405.272000", "113405.276000", "113405.279000", "113405.283000", "113405.286000", "113405.289000", "113405.292000", "113405.296000", "113405.299000", "113405.303000", "113405.306000", "113405.309000", "113405.321000", "113405.325000", "113405.328000", "113405.332000", "113405.335000", "113405.338000", "113405.342000", "113405.345000", "113405.348000", "113445.226000", "113445.230000", "113445.233000", "113445.237000", "113445.240000", "113445.243000", "113445.247000", "113445.250000", "113445.253000", "113445.257000", "113445.260000", "113445.263000", "113445.267000", "113445.270000", "113445.273000", "113445.277000", "113445.280000", "113445.283000", "113445.286000", "113445.290000", "113445.293000", "113445.297000", "113445.300000", "113445.304000", "113445.307000", "113445.310000", "113445.314000", "113525.226000", "113525.230000", "113525.233000", "113525.237000", "113525.240000", "113525.243000", "113525.247000", "113525.250000", "113525.253000", "113525.257000", "113525.260000", "113525.263000", "113525.267000", "113525.270000", "113525.273000", "113525.277000", "113525.280000", "113525.283000", "113525.287000", "113525.290000", "113525.302000", "113525.305000", "113525.308000", "113525.312000", "113525.315000", "113525.318000", "113525.322000", "113605.225000", "113605.229000", "113605.232000", "113605.236000", "113605.240000", "113605.243000", "113605.246000", "113605.250000", "113605.253000", "113605.257000", "113605.260000", "113605.263000", "113605.267000", "113605.270000", "113605.274000", "113605.277000", "113605.280000", "113605.284000", "113605.287000", "113605.291000", "113605.294000", "113605.297000", "113605.301000", "113605.304000", "113605.308000", "113605.311000", "113605.329000", "113645.226000", "113645.230000", "113645.233000", "113645.237000", "113645.240000", "113645.243000", "113645.247000", "113645.250000", "113645.253000", "113645.257000", "113645.260000", "113645.263000", "113645.267000", "113645.270000", "113645.273000", "113645.277000", "113645.280000", "113645.284000", "113645.288000", "113645.291000", "113645.295000", "113645.298000", "113645.301000", "113645.305000", "113645.308000", "113645.311000", "113725.226000", "113725.230000", "113725.233000", "113725.237000", "113725.240000", "113725.244000", "113725.247000", "113725.250000", "113725.260000", "113725.263000", "113725.266000", "113725.270000", "113725.273000", "113725.277000", "113725.280000", "113725.284000", "113725.287000", "113725.290000", "113725.294000", "113725.297000", "113725.300000", "113725.304000", "113725.307000", "113725.310000", "113725.314000", "113725.317000", "113725.321000", "113745.226000", "113745.230000", "113745.234000", "113745.237000", "113745.240000", "113745.244000", "113745.247000", "113745.250000", "113745.254000", "113745.257000", "113745.261000", "113745.264000", "113745.267000", "113745.271000", "113825.227000", "113825.230000", "113825.234000", "113825.238000", "113825.241000", "113825.245000", "113825.248000", "113825.252000", "113825.256000", "113825.259000", "113825.263000", "113825.266000", "113825.270000", "113825.274000", "113825.278000", "113825.292000", "113825.296000", "113825.299000", "113825.303000", "113825.306000", "113825.309000", "113825.313000", "113825.316000", "113825.319000", "113825.323000", "113825.326000", "113905.226000", "113905.230000", "113905.233000", "113905.237000", "113905.240000", "113905.244000", "113905.247000", "113905.250000", "113905.254000", "113905.257000", "113905.260000", "113905.264000", "113905.267000", "113905.270000", "113905.274000", "113905.277000", "113905.281000", "113905.284000", "113905.287000", "113905.291000", "113905.294000", "113905.297000", "113905.301000", "113905.304000", "113905.307000", "113905.311000", "113905.314000", "113945.226000", "113945.230000", "113945.234000", "113945.237000", "113945.240000", "113945.244000", "113945.247000", "113945.250000", "113945.254000", "113945.257000", "113945.261000", "113945.264000", "113945.267000", "113945.271000", "113945.274000", "113945.277000", "113945.281000", "113945.284000", "113945.288000", "113945.291000", "113945.294000", "113945.298000", "113945.301000", "113945.304000", "113945.308000", "113945.311000", "113945.314000", "114025.226000", "114025.241000", "114025.245000", "114025.248000", "114025.251000", "114025.255000", "114025.258000", "114025.262000", "114025.265000", "114025.268000", "114025.272000", "114025.275000", "114025.279000", "114025.282000", "114025.285000", "114025.289000", "114025.292000", "114025.296000", "114025.299000", "114025.302000", "114025.306000", "114025.309000", "114025.312000", "114025.316000", "114025.319000", "114025.322000", "114025.326000", "114105.225000", "114105.229000", "114105.233000", "114105.237000", "114105.241000", "114105.244000", "114105.248000", "114105.251000", "114105.254000", "114105.258000", "114105.261000", "114105.265000", "114105.268000", "114105.272000", "114105.275000", "114105.278000", "114105.282000", "114105.285000", "114105.289000", "114105.292000", "114105.303000", "114105.306000", "114105.309000", "114105.313000", "114105.316000", "114105.320000", "114105.323000", "114145.226000", "114145.230000", "114145.233000", "114145.237000", "114145.240000", "114145.244000", "114145.247000", "114145.251000", "114145.254000", "114145.257000", "114145.261000", "114145.264000", "114145.268000", "114145.271000", "114145.275000", "114145.278000", "114145.281000", "114145.285000", "114145.288000", "114145.292000", "114145.295000", "114145.298000", "114145.302000", "114145.305000", "114145.309000", "114145.312000", "114145.315000", "114225.226000", "114225.230000", "114225.234000", "114225.237000", "114225.240000", "114225.244000", "114225.247000", "114225.251000", "114225.254000", "114225.258000", "114225.261000", "114225.264000", "114225.268000", "114225.271000", "114225.275000", "114225.278000", "114225.281000", "114225.285000", "114225.289000", "114225.292000", "114225.295000", "114225.299000", "114225.302000", "114225.305000", "114225.309000", "114225.312000", "114225.316000", "114305.226000", "114305.230000", "114305.234000", "114305.237000", "114305.241000", "114305.244000", "114305.247000", "114305.251000", "114305.265000", "114305.269000", "114305.272000", "114305.275000", "114305.279000", "114305.282000", "114305.286000", "114305.289000", "114305.293000", "114305.296000", "114305.299000", "114305.303000", "114305.306000", "114305.310000", "114305.313000", "114305.317000", "114305.320000", "114305.323000", "114345.226000", "114345.230000", "114345.234000", "114345.237000", "114345.240000", "114345.244000", "114345.247000", "114345.251000", "114345.254000", "114345.258000", "114345.261000", "114345.264000", "114345.268000", "114345.271000", "114345.274000", "114345.278000", "114345.281000", "114345.285000", "114345.288000", "114345.292000", "114345.295000", "114345.298000", "114345.302000", "114345.305000", "114345.309000", "114345.312000", "114345.315000", "114425.227000", "114425.230000", "114425.234000", "114425.237000", "114425.240000", "114425.244000", "114425.248000", "114425.251000", "114425.255000", "114425.259000", "114425.262000", "114425.265000", "114425.269000", "114425.272000", "114425.275000", "114425.281000", "114425.285000", "114425.288000", "114425.292000", "114425.295000", "114425.298000", "114425.302000", "114425.305000", "114425.309000", "114425.312000", "114425.316000", "114425.319000", "114505.226000", "114505.230000", "114505.234000", "114505.237000", "114505.240000", "114505.244000", "114505.247000", "114505.251000", "114505.254000", "114505.258000", "114505.261000", "114505.264000", "114505.268000", "114505.271000", "114505.286000", "114505.290000", "114505.293000", "114505.296000", "114505.300000", "114505.303000", "114505.307000", "114505.310000", "114505.313000", "114505.317000", "114505.320000", "114505.324000", "114505.327000", "114545.225000", "114545.230000", "114545.234000", "114545.237000", "114545.240000", "114545.244000", "114545.247000", "114545.251000", "114545.254000", "114545.258000", "114545.261000", "114545.264000", "114545.268000", "114545.271000", "114545.275000", "114545.278000", "114545.281000", "114545.285000", "114545.288000", "114545.292000", "114545.295000", "114545.299000", "114545.302000", "114545.305000", "114545.309000", "114545.312000", "114545.316000", "114613.170000", "114613.203000", "114613.207000", "114613.210000", "114613.214000", "114613.217000", "114613.221000", "114613.224000", "114613.228000", "114613.231000", "114613.234000", "114613.238000", "114613.241000", "114613.245000", "114613.248000", "114613.252000", "114613.255000", "114613.258000", "114613.262000"],
