{
  "AcquisitionMatrixPE": 104,
  "AcquisitionNumber": 1,
  "AcquisitionTime": "11:31:18.657500",
  "BandwidthPerPixelPhaseEncode": 17.17,
  "BaseResolution": 104,
  "BodyPartExamined": "BRAIN",
  "CoilCombinationMethod": "Sum of Squares",
  "ConsistencyInfo": "N4_VE11C_LATEST_20160120",
  "ConversionSoftware": "dcm2niix",
  "ConversionSoftwareVersion": "v1.0.20220505",
  "DerivedVendorReportedEchoSpacing": 0.000560011,
  "DeviceSerialNumber": "167006",
  "DwellTime": 2.1e-06,
  "EchoTime": 0.037,
  "EchoTime1": 0.037,
  "EchoTime2": 0.001,
  "EchoTrainLength": 104,
  "EffectiveEchoSpacing": 0.000560011,
  "FlipAngle": 52,
  "HeudiconvVersion": "0.5.3.post811+g6206e14",
  "ImageComments": "Unaliased MB4/PE3/LB",
  "ImageOrientationPatientDICOM": [0.994527, 0.100228, 0.0294971, -0.0861354, 0.946352, -0.311446],
  "ImageOrientationText": "Tra>Cor(-17.9)>Sag(3.4)",
  "ImageType": [
    "ORIGINAL",
    "PRIMARY",
    "P",
    "MB",
    "ND",
    "MOSAIC",
    "PHASE"
],
  "ImagingFrequency": 123.26,
  "InPlanePhaseEncodingDirectionDICOM": "COL",
  "InstitutionAddress": "Chemin Queen-Mary 4565,Montreal,District,CA,H3W 1W5",
  "InstitutionName": "IUGM",
  "InstitutionalDepartmentName": "Department",
  "MRAcquisitionType": "2D",
  "MagneticFieldStrength": 3,
  "Manufacturer": "Siemens",
  "ManufacturersModelName": "Prisma_fit",
  "MatrixCoilMode": "SENSE",
  "Modality": "MR",
  "MultibandAccelerationFactor": 4,
  "PartialFourier": 1,
  "PatientPosition": "HFS",
  "PercentPhaseFOV": 100,
  "PercentSampling": 100,
  "PhaseEncodingDirection": "j",
  "PhaseEncodingSteps": 104,
  "PhaseResolution": 1,
  "PixelBandwidth": 2290,
  "ProcedureStepDescription": "games^mario3",
  "ProtocolName": "func_task-mario3_run-02",
  "PulseSequenceDetails": "%CustomerSeq%\\cmrr_mbep2d_bold",
  "ReceiveCoilActiveElements": "HC1-7;NC1,2",
  "ReceiveCoilName": "HeadNeck_64",
  "ReconMatrixPE": 104,
  "RepetitionTime": 1.49,
  "SAR": 0.0668929,
  "ScanOptions": "FS",
  "ScanningSequence": "EP",
  "SequenceName": "epfid2d1_104",
  "SequenceVariant": "SK\\SS",
  "SeriesDescription": "func_task-mario3_run-02",
  "SeriesNumber": 14,
  "ShimSetting": [622, -7195, -8782, 671, 107, 20, -26, 20],
  "SliceThickness": 2,
  "SliceTiming": [0, 0.7825, 0.0975, 0.88, 0.195, 0.98, 0.2925, 1.0775, 0.39, 1.175, 0.49, 1.2725, 0.5875, 1.37, 0.685, 0, 0.7825, 0.0975, 0.88, 0.195, 0.98, 0.2925, 1.0775, 0.39, 1.175, 0.49, 1.2725, 0.5875, 1.37, 0.685, 0, 0.7825, 0.0975, 0.88, 0.195, 0.98, 0.2925, 1.0775, 0.39, 1.175, 0.49, 1.2725, 0.5875, 1.37, 0.685, 0, 0.7825, 0.0975, 0.88, 0.195, 0.98, 0.2925, 1.0775, 0.39, 1.175, 0.49, 1.2725, 0.5875, 1.37, 0.685],
  "SoftwareVersions": "syngo MR E11",
  "SpacingBetweenSlices": 2,
  "StationName": "MRC35049",
  "TaskName": "mario3",
  "TotalReadoutTime": 0.0576811,
  "TxRefAmp": 291.322,
  "WipMemBlock": "5461a2a1-729c-468d-844a-695c776fb61e||Sequence: R017 ve11c/master r/75a17815+; Jun 28 2022 16:32:11 by eja",
  "dcmmeta_affine": [
    [-1.9890543222427368, -0.1722707599401474, 0.1182602196931839, 110.77277374267578],
    [-0.200455442070961, 1.8927042484283447, -0.6144006252288818, -52.15912628173828],
    [0.05899418517947197, 0.6228910684585571, 1.8996121883392334, -52.513362884521484],
    [0.0, 0.0, 0.0, 1.0]
],
  "dcmmeta_reorient_transform": [
    [0.0, -1.0, 0.0, 103.0],
    [1.0, 0.0, 0.0, 0.0],
    [0.0, 0.0, 1.0, 0.0],
    [0.0, 0.0, 0.0, 1.0]
],
  "dcmmeta_shape": [104, 104, 60, 600],
  "dcmmeta_slice_dim": 2,
  "dcmmeta_version": 0.6,
  "global": {
    "const": {
      "AcquisitionMatrix": [104, 0, 0, 104],
      "AngioFlag": "N",
      "BitsAllocated": 16,
      "BitsStored": 16,
      "BodyPartExamined": "BRAIN",
      "Columns": 832,
      "EchoNumbers": 1,
      "EchoTime": 37.0,
      "EchoTrainLength": 104,
      "FlipAngle": 52.0,
      "HighBit": 15,
      "ImageOrientationPatient": [0.99452718727261, 0.10022771750882, 0.02949709169753, -0.0861353799, 0.94635213869673, -0.3114455424526],
      "ImagePositionPatient": [-754.33812475284, -904.69955068406, 216.90289027933],
      "ImageType": [
        "ORIGINAL",
        "PRIMARY",
        "P",
        "MB",
        "ND",
        "MOSAIC"
],
      "ImagedNucleus": "1H",
      "ImagingFrequency": 123.260216,
      "InPlanePhaseEncodingDirection": "COL",
      "LargestImagePixelValue": 4095,
      "MRAcquisitionType": "2D",
      "MagneticFieldStrength": 3.0,
      "Manufacturer": "SIEMENS",
      "ManufacturerModelName": "Prisma_fit",
      "Modality": "MR",
      "NumberOfAverages": 1.0,
      "NumberOfPhaseEncodingSteps": 104,
      "PercentPhaseFieldOfView": 100.0,
      "PercentSampling": 100.0,
      "PerformedProcedureStepStartTime": "111840.497000",
      "PhotometricInterpretation": "MONOCHROME2",
      "PixelBandwidth": 2290.0,
      "PixelRepresentation": 0,
      "PixelSpacing": [2.0, 2.0],
      "ProtocolName": "func_task-mario3_run-02",
      "RepetitionTime": 1490.0,
      "RescaleIntercept": -4096.0,
      "RescaleSlope": 2.0,
      "RescaleType": "US",
      "Rows": 832,
      "SAR": 0.06689285688671,
      "SamplesPerPixel": 1,
      "ScanOptions": "FS",
      "ScanningSequence": "EP",
      "SequenceName": "epfid2d1_104",
      "SequenceVariant": [
        "SK",
        "SS"
],
      "SeriesDescription": "func_task-mario3_run-02",
      "SeriesNumber": 14,
      "SeriesTime": "113245.448000",
      "SliceLocation": -27.304205771601,
      "SliceThickness": 2.0,
      "SmallestImagePixelValue": 0,
      "SoftwareVersions": "syngo MR E11",
      "SpacingBetweenSlices": 1.999999961631,
      "SpecificCharacterSet": "ISO_IR 100",
      "StudyID": "2",
      "StudyTime": "111840.440000",
      "TransmitCoilName": "Body",
      "VariableFlipAngleFlag": "N",
      "WindowCenterWidthExplanation": "Algo1",
      "dBdt": 0.0},
    "slices": {}
  },
  "time": {
    "samples": {
      "AcquisitionNumber": [1, 2, 3, 4, 5, 6, 7, 8, 9, 10, 11, 12, 13, 14, 15, 16, 17, 18, 19, 20, 21, 22, 23, 24, 25, 26, 27, 28, 29, 30, 31, 32, 33, 34, 35, 36, 37, 38, 39, 40, 41, 42, 43, 44, 45, 46, 47, 48, 49, 50, 51, 52, 53, 54, 55, 56, 57, 58, 59, 60, 61, 62, 63, 64, 65, 66, 67, 68, 69, 70, 71, 72, 73, 74, 75, 76, 77, 78, 79, 80, 81, 82, 83, 84, 85, 86, 87, 88, 89, 90, 91, 92, 93, 94, 95, 96, 97, 98, 99, 100, 101, 102, 103, 104, 105, 106, 107, 108, 109, 110, 111, 112, 113, 114, 115, 116, 117, 118, 119, 120, 121, 122, 123, 124, 125, 126, 127, 128, 129, 130, 131, 132, 133, 134, 135, 136, 137, 138, 139, 140, 141, 142, 143, 144, 145, 146, 147, 148, 149, 150, 151, 152, 153, 154, 155, 156, 157, 158, 159, 160, 161, 162, 163, 164, 165, 166, 167, 168, 169, 170, 171, 172, 173, 174, 175, 176, 177, 178, 179, 180, 181, 182, 183, 184, 185, 186, 187, 188, 189, 190, 191, 192, 193, 194, 195, 196, 197, 198, 199, 200, 201, 202, 203, 204, 205, 206, 207, 208, 209, 210, 211, 212, 213, 214, 215, 216, 217, 218, 219, 220, 221, 222, 223, 224, 225, 226, 227, 228, 229, 230, 231, 232, 233, 234, 235, 236, 237, 238, 239, 240, 241, 242, 243, 244, 245, 246, 247, 248, 249, 250, 251, 252, 253, 254, 255, 256, 257, 258, 259, 260, 261, 262, 263, 264, 265, 266, 267, 268, 269, 270, 271, 272, 273, 274, 275, 276, 277, 278, 279, 280, 281, 282, 283, 284, 285, 286, 287, 288, 289, 290, 291, 292, 293, 294, 295, 296, 297, 298, 299, 300, 301, 302, 303, 304, 305, 306, 307, 308, 309, 310, 311, 312, 313, 314, 315, 316, 317, 318, 319, 320, 321, 322, 323, 324, 325, 326, 327, 328, 329, 330, 331, 332, 333, 334, 335, 336, 337, 338, 339, 340, 341, 342, 343, 344, 345, 346, 347, 348, 349, 350, 351, 352, 353, 354, 355, 356, 357, 358, 359, 360, 361, 362, 363, 364, 365, 366, 367, 368, 369, 370, 371, 372, 373, 374, 375, 376, 377, 378, 379, 380, 381, 382, 383, 384, 385, 386, 387, 388, 389, 390, 391, 392, 393, 394, 395, 396, 397, 398, 399, 400, 401, 402, 403, 404, 405, 406, 407, 408, 409, 410, 411, 412, 413, 414, 415, 416, 417, 418, 419, 420, 421, 422, 423, 424, 425, 426, 427, 428, 429, 430, 431, 432, 433, 434, 435, 436, 437, 438, 439, 440, 441, 442, 443, 444, 445, 446, 447, 448, 449, 450, 451, 452, 453, 454, 455, 456, 457, 458, 459, 460, 461, 462, 463, 464, 465, 466, 467, 468, 469, 470, 471, 472, 473, 474, 475, 476, 477, 478, 479, 480, 481, 482, 483, 484, 485, 486, 487, 488, 489, 490, 491, 492, 493, 494, 495, 496, 497, 498, 499, 500, 501, 502, 503, 504, 505, 506, 507, 508, 509, 510, 511, 512, 513, 514, 515, 516, 517, 518, 519, 520, 521, 522, 523, 524, 525, 526, 527, 528, 529, 530, 531, 532, 533, 534, 535, 536, 537, 538, 539, 540, 541, 542, 543, 544, 545, 546, 547, 548, 549, 550, 551, 552, 553, 554, 555, 556, 557, 558, 559, 560, 561, 562, 563, 564, 565, 566, 567, 568, 569, 570, 571, 572, 573, 574, 575, 576, 577, 578, 579, 580, 581, 582, 583, 584, 585, 586, 587, 588, 589, 590, 591, 592, 593, 594, 595, 596, 597, 598, 599, 600],
      "AcquisitionTime": ["113118.657500", "113120.147500", "113121.637500", "113123.127500", "113124.617500", "113126.107500", "113127.597500", "113129.087500", "113130.577500", "113132.067500", "113133.557500", "113135.047500", "113136.537500", "113138.027500", "113139.517500", "113141.007500", "113142.497500", "113143.987500", "113145.477500", "113146.967500", "113148.457500", "113149.947500", "113151.437500", "113152.927500", "113154.417500", "113155.907500", "113157.397500", "113158.887500", "113200.377500", "113201.867500", "113203.357500", "113204.847500", "113206.337500", "113207.827500", "113209.317500", "113210.807500", "113212.297500", "113213.787500", "113215.277500", "113216.767500", "113218.257500", "113219.747500", "113221.237500", "113222.727500", "113224.217500", "113225.707500", "113227.197500", "113228.687500", "113230.177500", "113231.667500", "113233.157500", "113234.647500", "113236.137500", "113237.627500", "113239.117500", "113240.607500", "113242.097500", "113243.587500", "113245.077500", "113246.567500", "113248.057500", "113249.547500", "113251.037500", "113252.527500", "113254.017500", "113255.507500", "113256.997500", "113258.487500", "113259.977500", "113301.467500", "113302.957500", "113304.447500", "113305.937500", "113307.427500", "113308.917500", "113310.407500", "113311.897500", "113313.387500", "113314.877500", "113316.367500", "113317.857500", "113319.347500", "113320.837500", "113322.327500", "113323.817500", "113325.307500", "113326.797500", "113328.287500", "113329.777500", "113331.267500", "113332.757500", "113334.247500", "113335.737500", "113337.227500", "113338.717500", "113340.207500", "113341.697500", "113343.187500", "113344.677500", "113346.167500", "113347.657500", "113349.147500", "113350.637500", "113352.127500", "113353.617500", "113355.107500", "113356.597500", "113358.087500", "113359.577500", "113401.067500", "113402.557500", "113404.047500", "113405.537500", "113407.027500", "113408.517500", "113410.007500", "113411.497500", "113412.987500", "113414.477500", "113415.967500", "113417.457500", "113418.947500", "113420.437500", "113421.927500", "113423.417500", "113424.907500", "113426.397500", "113427.887500", "113429.377500", "113430.867500", "113432.357500", "113433.847500", "113435.337500", "113436.827500", "113438.317500", "113439.807500", "113441.297500", "113442.787500", "113444.277500", "113445.767500", "113447.257500", "113448.747500", "113450.237500", "113451.727500", "113453.217500", "113454.707500", "113456.197500", "113457.687500", "113459.177500", "113500.667500", "113502.157500", "113503.647500", "113505.137500", "113506.627500", "113508.117500", "113509.607500", "113511.097500", "113512.587500", "113514.077500", "113515.567500", "113517.057500", "113518.547500", "113520.037500", "113521.527500", "113523.017500", "113524.507500", "113525.997500", "113527.487500", "113528.977500", "113530.467500", "113531.957500", "113533.447500", "113534.937500", "113536.427500", "113537.917500", "113539.407500", "113540.897500", "113542.387500", "113543.877500", "113545.367500", "113546.857500", "113548.347500", "113549.837500", "113551.327500", "113552.817500", "113554.307500", "113555.797500", "113557.287500", "113558.777500", "113600.267500", "113601.757500", "113603.247500", "113604.737500", "113606.227500", "113607.717500", "113609.207500", "113610.697500", "113612.187500", "113613.677500", "113615.167500", "113616.657500", "113618.147500", "113619.637500", "113621.127500", "113622.617500", "113624.107500", "113625.597500", "113627.087500", "113628.577500", "113630.067500", "113631.557500", "113633.047500", "113634.537500", "113636.027500", "113637.517500", "113639.007500", "113640.497500", "113641.987500", "113643.477500", "113644.967500", "113646.457500", "113647.947500", "113649.437500", "113650.927500", "113652.417500", "113653.907500", "113655.397500", "113656.887500", "113658.377500", "113659.867500", "113701.357500", "113702.847500", "113704.337500", "113705.827500", "113707.317500", "113708.807500", "113710.297500", "113711.787500", "113713.277500", "113714.767500", "113716.257500", "113717.747500", "113719.237500", "113720.727500", "113722.217500", "113723.707500", "113725.197500", "113726.687500", "113728.177500", "113729.667500", "113731.157500", "113732.647500", "113734.137500", "113735.627500", "113737.117500", "113738.607500", "113740.097500", "113741.587500", "113743.077500", "113744.567500", "113746.057500", "113747.547500", "113749.037500", "113750.527500", "113752.017500", "113753.507500", "113754.997500", "113756.487500", "113757.977500", "113759.467500", "113800.957500", "113802.447500", "113803.937500", "113805.427500", "113806.917500", "113808.407500", "113809.897500", "113811.387500", "113812.877500", "113814.367500", "113815.857500", "113817.347500", "113818.837500", "113820.327500", "113821.817500", "113823.307500", "113824.797500", "113826.287500", "113827.777500", "113829.267500", "113830.757500", "113832.247500", "113833.737500", "113835.227500", "113836.717500", "113838.207500", "113839.697500", "113841.187500", "113842.677500", "113844.167500", "113845.657500", "113847.147500", "113848.637500", "113850.127500", "113851.617500", "113853.107500", "113854.597500", "113856.087500", "113857.577500", "113859.067500", "113900.557500", "113902.047500", "113903.537500", "113905.027500", "113906.517500", "113908.007500", "113909.497500", "113910.987500", "113912.477500", "113913.967500", "113915.457500", "113916.947500", "113918.437500", "113919.927500", "113921.417500", "113922.907500", "113924.397500", "113925.887500", "113927.377500", "113928.867500", "113930.357500", "113931.847500", "113933.337500", "113934.827500", "113936.317500", "113937.807500", "113939.297500", "113940.787500", "113942.277500", "113943.767500", "113945.257500", "113946.747500", "113948.237500", "113949.727500", "113951.217500", "113952.707500", "113954.197500", "113955.687500", "113957.177500", "113958.667500", "114000.157500", "114001.647500", "114003.137500", "114004.627500", "114006.117500", "114007.607500", "114009.097500", "114010.587500", "114012.077500", "114013.567500", "114015.057500", "114016.547500", "114018.037500", "114019.527500", "114021.017500", "114022.507500", "114023.997500", "114025.487500", "114026.977500", "114028.467500", "114029.957500", "114031.447500", "114032.937500", "114034.427500", "114035.917500", "114037.407500", "114038.897500", "114040.387500", "114041.877500", "114043.367500", "114044.857500", "114046.347500", "114047.837500", "114049.327500", "114050.817500", "114052.307500", "114053.797500", "114055.287500", "114056.777500", "114058.267500", "114059.757500", "114101.247500", "114102.737500", "114104.227500", "114105.717500", "114107.207500", "114108.697500", "114110.187500", "114111.677500", "114113.167500", "114114.657500", "114116.147500", "114117.637500", "114119.127500", "114120.617500", "114122.107500", "114123.597500", "114125.087500", "114126.577500", "114128.067500", "114129.557500", "114131.047500", "114132.537500", "114134.027500", "114135.517500", "114137.007500", "114138.497500", "114139.987500", "114141.477500", "114142.967500", "114144.457500", "114145.947500", "114147.437500", "114148.927500", "114150.417500", "114151.907500", "114153.397500", "114154.887500", "114156.377500", "114157.867500", "114159.357500", "114200.847500", "114202.337500", "114203.827500", "114205.317500", "114206.807500", "114208.297500", "114209.787500", "114211.277500", "114212.767500", "114214.257500", "114215.747500", "114217.237500", "114218.727500", "114220.217500", "114221.707500", "114223.197500", "114224.687500", "114226.177500", "114227.667500", "114229.157500", "114230.647500", "114232.137500", "114233.627500", "114235.117500", "114236.607500", "114238.097500", "114239.587500", "114241.077500", "114242.567500", "114244.057500", "114245.547500", "114247.037500", "114248.527500", "114250.017500", "114251.507500", "114252.997500", "114254.487500", "114255.977500", "114257.467500", "114258.957500", "114300.447500", "114301.937500", "114303.427500", "114304.917500", "114306.407500", "114307.897500", "114309.387500", "114310.877500", "114312.367500", "114313.857500", "114315.347500", "114316.837500", "114318.327500", "114319.817500", "114321.307500", "114322.797500", "114324.287500", "114325.777500", "114327.267500", "114328.757500", "114330.247500", "114331.737500", "114333.227500", "114334.717500", "114336.207500", "114337.697500", "114339.187500", "114340.677500", "114342.167500", "114343.657500", "114345.147500", "114346.637500", "114348.127500", "114349.617500", "114351.107500", "114352.597500", "114354.087500", "114355.577500", "114357.067500", "114358.557500", "114400.047500", "114401.537500", "114403.027500", "114404.517500", "114406.007500", "114407.497500", "114408.987500", "114410.477500", "114411.967500", "114413.457500", "114414.947500", "114416.437500", "114417.927500", "114419.417500", "114420.907500", "114422.397500", "114423.887500", "114425.377500", "114426.867500", "114428.357500", "114429.847500", "114431.337500", "114432.827500", "114434.317500", "114435.807500", "114437.297500", "114438.787500", "114440.277500", "114441.767500", "114443.257500", "114444.747500", "114446.237500", "114447.727500", "114449.217500", "114450.707500", "114452.197500", "114453.687500", "114455.177500", "114456.667500", "114458.157500", "114459.647500", "114501.137500", "114502.627500", "114504.117500", "114505.607500", "114507.097500", "114508.587500", "114510.077500", "114511.567500", "114513.057500", "114514.547500", "114516.037500", "114517.527500", "114519.017500", "114520.507500", "114521.997500", "114523.487500", "114524.977500", "114526.467500", "114527.957500", "114529.447500", "114530.937500", "114532.427500", "114533.917500", "114535.407500", "114536.897500", "114538.387500", "114539.877500", "114541.367500", "114542.857500", "114544.347500", "114545.837500", "114547.327500", "114548.817500", "114550.307500", "114551.797500", "114553.287500", "114554.777500", "114556.267500", "114557.757500", "114559.247500", "114600.737500", "114602.227500", "114603.717500", "114605.207500", "114606.697500", "114608.187500", "114609.677500", "114611.167500"],
      "ContentTime": ["113245.450000", "113245.453000", "113245.456000", "113245.458000", "113245.461000", "113245.463000", "113245.466000", "113245.468000", "113245.471000", "113245.473000", "113245.476000", "113245.478000", "113245.481000", "113245.483000", "113245.486000", "113245.488000", "113245.491000", "113245.499000", "113245.502000", "113245.504000", "113245.507000", "113245.510000", "113245.512000", "113245.514000", "113245.517000", "113245.519000", "113245.522000", "113245.524000", "113245.527000", "113245.529000", "113245.532000", "113245.534000", "113245.537000", "113245.539000", "113245.542000", "113245.545000", "113245.547000", "113245.550000", "113245.552000", "113305.339000", "113305.341000", "113305.344000", "113305.346000", "113305.349000", "113305.351000", "113305.354000", "113305.356000", "113305.359000", "113305.361000", "113305.364000", "113305.367000", "113305.369000", "113305.372000", "113305.374000", "113305.377000", "113305.379000", "113305.382000", "113305.384000", "113305.387000", "113325.337000", "113325.340000", "113325.343000", "113325.345000", "113325.348000", "113325.350000", "113325.353000", "113325.355000", "113325.358000", "113325.360000", "113325.363000", "113325.366000", "113325.368000", "113325.371000", "113325.373000", "113325.376000", "113325.378000", "113325.381000", "113325.383000", "113325.386000", "113405.403000", "113405.406000", "113405.408000", "113405.411000", "113405.413000", "113405.416000", "113405.418000", "113405.421000", "113405.424000", "113405.426000", "113405.429000", "113405.431000", "113405.434000", "113405.436000", "113405.439000", "113405.441000", "113405.444000", "113405.446000", "113405.449000", "113405.451000", "113405.454000", "113405.457000", "113405.459000", "113405.465000", "113405.468000", "113405.470000", "113405.473000", "113405.476000", "113405.478000", "113405.481000", "113405.483000", "113405.486000", "113445.372000", "113445.374000", "113445.377000", "113445.380000", "113445.382000", "113445.385000", "113445.387000", "113445.390000", "113445.392000", "113445.395000", "113445.397000", "113445.400000", "113445.402000", "113445.405000", "113445.407000", "113445.410000", "113445.412000", "113445.415000", "113445.417000", "113445.420000", "113445.422000", "113445.425000", "113445.427000", "113445.430000", "113445.433000", "113445.435000", "113445.437000", "113525.817000", "113525.819000", "113525.822000", "113525.824000", "113525.827000", "113525.829000", "113525.832000", "113525.834000", "113525.837000", "113525.839000", "113525.842000", "113525.845000", "113525.847000", "113525.850000", "113525.859000", "113525.861000", "113525.864000", "113525.866000", "113525.869000", "113525.871000", "113525.874000", "113525.876000", "113525.879000", "113525.882000", "113525.885000", "113525.887000", "113525.890000", "113605.379000", "113605.382000", "113605.385000", "113605.387000", "113605.395000", "113605.397000", "113605.400000", "113605.402000", "113605.405000", "113605.408000", "113605.410000", "113605.413000", "113605.415000", "113605.418000", "113605.420000", "113605.423000", "113605.426000", "113605.428000", "113605.431000", "113605.433000", "113605.436000", "113605.438000", "113605.441000", "113605.444000", "113605.446000", "113605.449000", "113605.451000", "113645.359000", "113645.362000", "113645.365000", "113645.367000", "113645.370000", "113645.372000", "113645.375000", "113645.377000", "113645.380000", "113645.382000", "113645.385000", "113645.387000", "113645.390000", "113645.393000", "113645.395000", "113645.398000", "113645.400000", "113645.403000", "113645.405000", "113645.408000", "113645.411000", "113645.413000", "113645.416000", "113645.418000", "113645.421000", "113645.424000", "113725.367000", "113725.370000", "113725.372000", "113725.375000", "113725.378000", "113725.380000", "113725.383000", "113725.385000", "113725.388000", "113725.391000", "113725.393000", "113725.396000", "113725.398000", "113725.401000", "113725.403000", "113725.406000", "113725.408000", "113725.411000", "113725.413000", "113725.416000", "113725.418000", "113725.421000", "113725.423000", "113725.426000", "113725.428000", "113725.431000", "113725.433000", "113745.303000", "113745.305000", "113745.308000", "113745.310000", "113745.313000", "113745.315000", "113745.318000", "113745.321000", "113745.323000", "113745.326000", "113745.328000", "113745.331000", "113745.333000", "113745.336000", "113825.379000", "113825.382000", "113825.384000", "113825.387000", "113825.389000", "113825.392000", "113825.394000", "113825.397000", "113825.399000", "113825.402000", "113825.405000", "113825.407000", "113825.410000", "113825.412000", "113825.415000", "113825.417000", "113825.420000", "113825.422000", "113825.425000", "113825.427000", "113825.430000", "113825.432000", "113825.435000", "113825.437000", "113825.440000", "113825.442000", "113905.365000", "113905.368000", "113905.371000", "113905.373000", "113905.376000", "113905.378000", "113905.381000", "113905.384000", "113905.386000", "113905.389000", "113905.391000", "113905.394000", "113905.396000", "113905.399000", "113905.401000", "113905.404000", "113905.407000", "113905.409000", "113905.412000", "113905.414000", "113905.417000", "113905.419000", "113905.422000", "113905.424000", "113905.427000", "113905.429000", "113905.432000", "113945.362000", "113945.365000", "113945.367000", "113945.370000", "113945.372000", "113945.375000", "113945.377000", "113945.380000", "113945.382000", "113945.385000", "113945.387000", "113945.390000", "113945.392000", "113945.395000", "113945.398000", "113945.400000", "113945.403000", "113945.405000", "113945.408000", "113945.410000", "113945.413000", "113945.415000", "113945.418000", "113945.420000", "113945.423000", "113945.425000", "113945.428000", "114025.376000", "114025.379000", "114025.381000", "114025.384000", "114025.386000", "114025.389000", "114025.391000", "114025.394000", "114025.397000", "114025.399000", "114025.402000", "114025.404000", "114025.407000", "114025.410000", "114025.412000", "114025.415000", "114025.418000", "114025.420000", "114025.423000", "114025.425000", "114025.428000", "114025.430000", "114025.433000", "114025.436000", "114025.438000", "114025.441000", "114025.443000", "114105.372000", "114105.375000", "114105.378000", "114105.380000", "114105.383000", "114105.386000", "114105.388000", "114105.391000", "114105.393000", "114105.396000", "114105.399000", "114105.401000", "114105.404000", "114105.406000", "114105.409000", "114105.412000", "114105.414000", "114105.417000", "114105.419000", "114105.422000", "114105.424000", "114105.427000", "114105.430000", "114105.432000", "114105.435000", "114105.437000", "114105.440000", "114145.376000", "114145.379000", "114145.381000", "114145.384000", "114145.387000", "114145.389000", "114145.392000", "114145.394000", "114145.397000", "114145.399000", "114145.402000", "114145.404000", "114145.407000", "114145.410000", "114145.412000", "114145.415000", "114145.417000", "114145.420000", "114145.422000", "114145.425000", "114145.428000", "114145.430000", "114145.433000", "114145.435000", "114145.438000", "114145.441000", "114145.443000", "114225.361000", "114225.364000", "114225.382000", "114225.385000", "114225.387000", "114225.390000", "114225.393000", "114225.395000", "114225.398000", "114225.400000", "114225.403000", "114225.406000", "114225.408000", "114225.411000", "114225.413000", "114225.416000", "114225.418000", "114225.421000", "114225.424000", "114225.426000", "114225.429000", "114225.431000", "114225.434000", "114225.437000", "114225.439000", "114225.442000", "114225.444000", "114305.370000", "114305.373000", "114305.376000", "114305.379000", "114305.382000", "114305.385000", "114305.387000", "114305.390000", "114305.393000", "114305.395000", "114305.398000", "114305.400000", "114305.403000", "114305.406000", "114305.408000", "114305.411000", "114305.413000", "114305.416000", "114305.419000", "114305.421000", "114305.424000", "114305.427000", "114305.429000", "114305.432000", "114305.434000", "114305.437000", "114345.373000", "114345.376000", "114345.379000", "114345.381000", "114345.384000", "114345.386000", "114345.389000", "114345.391000", "114345.394000", "114345.397000", "114345.399000", "114345.402000", "114345.404000", "114345.407000", "114345.410000", "114345.412000", "114345.415000", "114345.417000", "114345.420000", "114345.422000", "114345.425000", "114345.428000", "114345.430000", "114345.433000", "114345.435000", "114345.438000", "114345.440000", "114425.370000", "114425.373000", "114425.376000", "114425.379000", "114425.381000", "114425.384000", "114425.386000", "114425.389000", "114425.392000", "114425.394000", "114425.397000", "114425.399000", "114425.402000", "114425.404000", "114425.407000", "114425.410000", "114425.412000", "114425.415000", "114425.417000", "114425.420000", "114425.422000", "114425.425000", "114425.428000", "114425.430000", "114425.442000", "114425.444000", "114425.447000", "114505.733000", "114505.736000", "114505.738000", "114505.741000", "114505.744000", "114505.746000", "114505.749000", "114505.751000", "114505.754000", "114505.757000", "114505.759000", "114505.762000", "114505.764000", "114505.767000", "114505.769000", "114505.772000", "114505.775000", "114505.777000", "114505.780000", "114505.782000", "114505.785000", "114505.787000", "114505.790000", "114505.793000", "114505.795000", "114505.798000", "114505.800000", "114545.365000", "114545.368000", "114545.370000", "114545.373000", "114545.376000", "114545.378000", "114545.381000", "114545.383000", "114545.386000", "114545.388000", "114545.391000", "114545.394000", "114545.396000", "114545.399000", "114545.401000", "114545.404000", "114545.406000", "114545.409000", "114545.412000", "114545.414000", "114545.417000", "114545.419000", "114545.422000", "114545.425000", "114545.427000", "114545.430000", "114545.432000", "114613.315000", "114613.319000", "114613.321000", "114613.324000", "114613.339000", "114613.341000", "114613.344000", "114613.346000", "114613.349000", "114613.352000", "114613.355000", "114613.357000", "114613.360000", "114613.362000", "114613.365000", "114613.368000", "114613.370000", "114613.373000", "114613.375000"],
