{
  "AcquisitionMatrixPE": 104,
  "AcquisitionNumber": 1,
  "AcquisitionTime": "11:58:58.140000",
  "BandwidthPerPixelPhaseEncode": 17.17,
  "BaseResolution": 104,
  "BodyPartExamined": "BRAIN",
  "CoilCombinationMethod": "Sum of Squares",
  "ConsistencyInfo": "N4_VE11C_LATEST_20160120",
  "ConversionSoftware": "dcm2niix",
  "ConversionSoftwareVersion": "v1.0.20220505",
  "DerivedVendorReportedEchoSpacing": 0.000560011,
  "DeviceSerialNumber": "167006",
  "DwellTime": 2.1e-06,
  "EchoTime": 0.037,
  "EchoTime1": 0.037,
  "EchoTime2": 0.001,
  "EchoTrainLength": 104,
  "EffectiveEchoSpacing": 0.000560011,
  "FlipAngle": 52,
  "HeudiconvVersion": "0.5.3.post811+g6206e14",
  "ImageComments": "Unaliased MB4/PE3/LB",
  "ImageOrientationPatientDICOM": [0.994527, 0.100228, 0.0294971, -0.0861354, 0.946352, -0.311446],
  "ImageOrientationText": "Tra>Cor(-17.9)>Sag(3.4)",
  "ImageType": [
    "ORIGINAL",
    "PRIMARY",
    "P",
    "MB",
    "ND",
    "MOSAIC",
    "PHASE"
],
  "ImagingFrequency": 123.26,
  "InPlanePhaseEncodingDirectionDICOM": "COL",
  "InstitutionAddress": "Chemin Queen-Mary 4565,Montreal,District,CA,H3W 1W5",
  "InstitutionName": "IUGM",
  "InstitutionalDepartmentName": "Department",
  "MRAcquisitionType": "2D",
  "MagneticFieldStrength": 3,
  "Manufacturer": "Siemens",
  "ManufacturersModelName": "Prisma_fit",
  "MatrixCoilMode": "SENSE",
  "Modality": "MR",
  "MultibandAccelerationFactor": 4,
  "PartialFourier": 1,
  "PatientPosition": "HFS",
  "PercentPhaseFOV": 100,
  "PercentSampling": 100,
  "PhaseEncodingDirection": "j",
  "PhaseEncodingSteps": 104,
  "PhaseResolution": 1,
  "PixelBandwidth": 2290,
  "ProcedureStepDescription": "games^mario3",
  "ProtocolName": "func_task-mario3_run-04",
  "PulseSequenceDetails": "%CustomerSeq%\\cmrr_mbep2d_bold",
  "ReceiveCoilActiveElements": "HC1-7;NC1,2",
  "ReceiveCoilName": "HeadNeck_64",
  "ReconMatrixPE": 104,
  "RepetitionTime": 1.49,
  "SAR": 0.0668929,
  "ScanOptions": "FS",
  "ScanningSequence": "EP",
  "SequenceName": "epfid2d1_104",
  "SequenceVariant": "SK\\SS",
  "SeriesDescription": "func_task-mario3_run-04",
  "SeriesNumber": 20,
  "ShimSetting": [622, -7195, -8782, 671, 107, 20, -26, 20],
  "SliceThickness": 2,
  "SliceTiming": [0, 0.785, 0.0975, 0.8825, 0.1975, 0.98, 0.295, 1.0775, 0.3925, 1.1775, 0.49, 1.275, 0.5875, 1.3725, 0.6875, 0, 0.785, 0.0975, 0.8825, 0.1975, 0.98, 0.295, 1.0775, 0.3925, 1.1775, 0.49, 1.275, 0.5875, 1.3725, 0.6875, 0, 0.785, 0.0975, 0.8825, 0.1975, 0.98, 0.295, 1.0775, 0.3925, 1.1775, 0.49, 1.275, 0.5875, 1.3725, 0.6875, 0, 0.785, 0.0975, 0.8825, 0.1975, 0.98, 0.295, 1.0775, 0.3925, 1.1775, 0.49, 1.275, 0.5875, 1.3725, 0.6875],
  "SoftwareVersions": "syngo MR E11",
  "SpacingBetweenSlices": 2,
  "StationName": "MRC35049",
  "TaskName": "mario3",
  "TotalReadoutTime": 0.0576811,
  "TxRefAmp": 291.322,
  "WipMemBlock": "bc152ec8-eaee-4623-a030-4f07c43eed9a||Sequence: R017 ve11c/master r/75a17815+; Jun 28 2022 16:32:11 by eja",
  "dcmmeta_affine": [
    [-1.9890543222427368, -0.1722707599401474, 0.1182602196931839, 110.77277374267578],
    [-0.200455442070961, 1.8927042484283447, -0.6144006252288818, -52.15912628173828],
    [0.05899418517947197, 0.6228910684585571, 1.8996121883392334, -52.513362884521484],
    [0.0, 0.0, 0.0, 1.0]
],
  "dcmmeta_reorient_transform": [
    [0.0, -1.0, 0.0, 103.0],
    [1.0, 0.0, 0.0, 0.0],
    [0.0, 0.0, 1.0, 0.0],
    [0.0, 0.0, 0.0, 1.0]
],
  "dcmmeta_shape": [104, 104, 60, 399],
  "dcmmeta_slice_dim": 2,
  "dcmmeta_version": 0.6,
  "global": {
    "const": {
      "AcquisitionMatrix": [104, 0, 0, 104],
      "AngioFlag": "N",
      "BitsAllocated": 16,
      "BitsStored": 16,
      "BodyPartExamined": "BRAIN",
      "Columns": 832,
      "EchoNumbers": 1,
      "EchoTime": 37.0,
      "EchoTrainLength": 104,
      "FlipAngle": 52.0,
      "HighBit": 15,
      "ImageOrientationPatient": [0.99452718727261, 0.10022771750882, 0.02949709169753, -0.0861353799, 0.94635213869673, -0.3114455424526],
      "ImagePositionPatient": [-754.33812475284, -904.69955068406, 216.90289027933],
      "ImageType": [
        "ORIGINAL",
        "PRIMARY",
        "P",
        "MB",
        "ND",
        "MOSAIC"
],
      "ImagedNucleus": "1H",
      "ImagingFrequency": 123.260229,
      "InPlanePhaseEncodingDirection": "COL",
      "LargestImagePixelValue": 4095,
      "MRAcquisitionType": "2D",
      "MagneticFieldStrength": 3.0,
      "Manufacturer": "SIEMENS",
      "ManufacturerModelName": "Prisma_fit",
      "Modality": "MR",
      "NumberOfAverages": 1.0,
      "NumberOfPhaseEncodingSteps": 104,
      "PercentPhaseFieldOfView": 100.0,
      "PercentSampling": 100.0,
      "PerformedProcedureStepStartTime": "111840.497000",
      "PhotometricInterpretation": "MONOCHROME2",
      "PixelBandwidth": 2290.0,
      "PixelRepresentation": 0,
      "PixelSpacing": [2.0, 2.0],
      "ProtocolName": "func_task-mario3_run-04",
      "RepetitionTime": 1490.0,
      "RescaleIntercept": -4096.0,
      "RescaleSlope": 2.0,
      "RescaleType": "US",
      "Rows": 832,
      "SAR": 0.06689285688671,
      "SamplesPerPixel": 1,
      "ScanOptions": "FS",
      "ScanningSequence": "EP",
      "SequenceName": "epfid2d1_104",
      "SequenceVariant": [
        "SK",
        "SS"
],
      "SeriesDescription": "func_task-mario3_run-04",
      "SeriesNumber": 20,
      "SeriesTime": "120008.940000",
      "SliceLocation": -27.304205771601,
      "SliceThickness": 2.0,
      "SmallestImagePixelValue": 0,
      "SoftwareVersions": "syngo MR E11",
      "SpacingBetweenSlices": 1.999999961631,
      "SpecificCharacterSet": "ISO_IR 100",
      "StudyID": "2",
      "StudyTime": "111840.440000",
      "TransmitCoilName": "Body",
      "VariableFlipAngleFlag": "N",
      "WindowCenterWidthExplanation": "Algo1",
      "dBdt": 0.0},
    "slices": {}
  },
  "time": {
    "samples": {
      "AcquisitionNumber": [1, 2, 3, 4, 5, 6, 7, 8, 9, 10, 11, 12, 13, 14, 15, 16, 17, 18, 19, 20, 21, 22, 23, 24, 25, 26, 27, 28, 29, 30, 31, 32, 33, 34, 35, 36, 37, 38, 39, 40, 41, 42, 43, 44, 45, 46, 47, 48, 49, 50, 51, 52, 53, 54, 55, 56, 57, 58, 59, 60, 61, 62, 63, 64, 65, 66, 67, 68, 69, 70, 71, 72, 73, 74, 75, 76, 77, 78, 79, 80, 81, 82, 83, 84, 85, 86, 87, 88, 89, 90, 91, 92, 93, 94, 95, 96, 97, 98, 99, 100, 101, 102, 103, 104, 105, 106, 107, 108, 109, 110, 111, 112, 113, 114, 115, 116, 117, 118, 119, 120, 121, 122, 123, 124, 125, 126, 127, 128, 129, 130, 131, 132, 133, 134, 135, 136, 137, 138, 139, 140, 141, 142, 143, 144, 145, 146, 147, 148, 149, 150, 151, 152, 153, 154, 155, 156, 157, 158, 159, 160, 161, 162, 163, 164, 165, 166, 167, 168, 169, 170, 171, 172, 173, 174, 175, 176, 177, 178, 179, 180, 181, 182, 183, 184, 185, 186, 187, 188, 189, 190, 191, 192, 193, 194, 195, 196, 197, 198, 199, 200, 201, 202, 203, 204, 205, 206, 207, 208, 209, 210, 211, 212, 213, 214, 215, 216, 217, 218, 219, 220, 221, 222, 223, 224, 225, 226, 227, 228, 229, 230, 231, 232, 233, 234, 235, 236, 237, 238, 239, 240, 241, 242, 243, 244, 245, 246, 247, 248, 249, 250, 251, 252, 253, 254, 255, 256, 257, 258, 259, 260, 261, 262, 263, 264, 265, 266, 267, 268, 269, 270, 271, 272, 273, 274, 275, 276, 277, 278, 279, 280, 281, 282, 283, 284, 285, 286, 287, 288, 289, 290, 291, 292, 293, 294, 295, 296, 297, 298, 299, 300, 301, 302, 303, 304, 305, 306, 307, 308, 309, 310, 311, 312, 313, 314, 315, 316, 317, 318, 319, 320, 321, 322, 323, 324, 325, 326, 327, 328, 329, 330, 331, 332, 333, 334, 335, 336, 337, 338, 339, 340, 341, 342, 343, 344, 345, 346, 347, 348, 349, 350, 351, 352, 353, 354, 355, 356, 357, 358, 359, 360, 361, 362, 363, 364, 365, 366, 367, 368, 369, 370, 371, 372, 373, 374, 375, 376, 377, 378, 379, 380, 381, 382, 383, 384, 385, 386, 387, 388, 389, 390, 391, 392, 393, 394, 395, 396, 397, 398, 399],
      "AcquisitionTime": ["115858.140000", "115859.630000", "115901.120000", "115902.610000", "115904.100000", "115905.590000", "115907.080000", "115908.570000", "115910.060000", "115911.550000", "115913.040000", "115914.530000", "115916.020000", "115917.510000", "115919.000000", "115920.490000", "115921.980000", "115923.470000", "115924.960000", "115926.450000", "115927.940000", "115929.430000", "115930.920000", "115932.410000", "115933.900000", "115935.390000", "115936.880000", "115938.370000", "115939.860000", "115941.350000", "115942.840000", "115944.330000", "115945.820000", "115947.310000", "115948.800000", "115950.290000", "115951.780000", "115953.270000", "115954.760000", "115956.250000", "115957.740000", "115959.230000", "120000.720000", "120002.210000", "120003.700000", "120005.190000", "120006.680000", "120008.170000", "120009.660000", "120011.150000", "120012.640000", "120014.130000", "120015.620000", "120017.110000", "120018.600000", "120020.090000", "120021.580000", "120023.070000", "120024.560000", "120026.050000", "120027.540000", "120029.030000", "120030.520000", "120032.010000", "120033.500000", "120034.990000", "120036.480000", "120037.970000", "120039.460000", "120040.950000", "120042.440000", "120043.930000", "120045.420000", "120046.910000", "120048.400000", "120049.890000", "120051.380000", "120052.870000", "120054.360000", "120055.850000", "120057.340000", "120058.830000", "120100.320000", "120101.810000", "120103.300000", "120104.790000", "120106.280000", "120107.770000", "120109.260000", "120110.750000", "120112.240000", "120113.730000", "120115.220000", "120116.710000", "120118.200000", "120119.690000", "120121.180000", "120122.670000", "120124.160000", "120125.650000", "120127.140000", "120128.630000", "120130.120000", "120131.610000", "120133.100000", "120134.590000", "120136.080000", "120137.570000", "120139.060000", "120140.550000", "120142.040000", "120143.530000", "120145.020000", "120146.510000", "120148.000000", "120149.490000", "120150.980000", "120152.470000", "120153.960000", "120155.450000", "120156.940000", "120158.430000", "120159.920000", "120201.410000", "120202.900000", "120204.390000", "120205.880000", "120207.370000", "120208.860000", "120210.350000", "120211.840000", "120213.330000", "120214.820000", "120216.310000", "120217.800000", "120219.290000", "120220.780000", "120222.270000", "120223.760000", "120225.250000", "120226.740000", "120228.230000", "120229.720000", "120231.210000", "120232.700000", "120234.190000", "120235.680000", "120237.170000", "120238.660000", "120240.150000", "120241.640000", "120243.130000", "120244.620000", "120246.110000", "120247.600000", "120249.090000", "120250.580000", "120252.070000", "120253.560000", "120255.050000", "120256.540000", "120258.030000", "120259.520000", "120301.010000", "120302.500000", "120303.990000", "120305.480000", "120306.970000", "120308.460000", "120309.950000", "120311.440000", "120312.930000", "120314.420000", "120315.910000", "120317.400000", "120318.890000", "120320.380000", "120321.870000", "120323.360000", "120324.850000", "120326.340000", "120327.830000", "120329.320000", "120330.810000", "120332.300000", "120333.790000", "120335.280000", "120336.770000", "120338.260000", "120339.750000", "120341.240000", "120342.730000", "120344.220000", "120345.710000", "120347.200000", "120348.690000", "120350.180000", "120351.670000", "120353.160000", "120354.650000", "120356.140000", "120357.630000", "120359.120000", "120400.610000", "120402.100000", "120403.590000", "120405.080000", "120406.570000", "120408.060000", "120409.550000", "120411.040000", "120412.530000", "120414.020000", "120415.510000", "120417.000000", "120418.490000", "120419.980000", "120421.470000", "120422.960000", "120424.450000", "120425.940000", "120427.430000", "120428.920000", "120430.410000", "120431.900000", "120433.390000", "120434.880000", "120436.370000", "120437.860000", "120439.350000", "120440.840000", "120442.330000", "120443.820000", "120445.310000", "120446.800000", "120448.290000", "120449.780000", "120451.270000", "120452.760000", "120454.250000", "120455.740000", "120457.230000", "120458.720000", "120500.210000", "120501.700000", "120503.190000", "120504.680000", "120506.170000", "120507.660000", "120509.150000", "120510.640000", "120512.130000", "120513.620000", "120515.110000", "120516.600000", "120518.090000", "120519.580000", "120521.070000", "120522.560000", "120524.050000", "120525.540000", "120527.030000", "120528.520000", "120530.010000", "120531.500000", "120532.990000", "120534.480000", "120535.970000", "120537.460000", "120538.950000", "120540.440000", "120541.930000", "120543.420000", "120544.910000", "120546.400000", "120547.890000", "120549.380000", "120550.870000", "120552.360000", "120553.850000", "120555.340000", "120556.830000", "120558.320000", "120559.810000", "120601.300000", "120602.790000", "120604.280000", "120605.770000", "120607.260000", "120608.750000", "120610.240000", "120611.730000", "120613.220000", "120614.710000", "120616.200000", "120617.690000", "120619.180000", "120620.670000", "120622.160000", "120623.650000", "120625.140000", "120626.630000", "120628.120000", "120629.610000", "120631.100000", "120632.590000", "120634.080000", "120635.570000", "120637.060000", "120638.550000", "120640.040000", "120641.530000", "120643.020000", "120644.510000", "120646.000000", "120647.490000", "120648.980000", "120650.470000", "120651.960000", "120653.450000", "120654.940000", "120656.430000", "120657.920000", "120659.410000", "120700.900000", "120702.390000", "120703.880000", "120705.370000", "120706.860000", "120708.350000", "120709.840000", "120711.330000", "120712.820000", "120714.310000", "120715.800000", "120717.290000", "120718.780000", "120720.270000", "120721.760000", "120723.250000", "120724.740000", "120726.230000", "120727.720000", "120729.210000", "120730.700000", "120732.190000", "120733.680000", "120735.170000", "120736.660000", "120738.150000", "120739.640000", "120741.130000", "120742.620000", "120744.110000", "120745.600000", "120747.090000", "120748.580000", "120750.070000", "120751.560000", "120753.050000", "120754.540000", "120756.030000", "120757.520000", "120759.010000", "120800.500000", "120801.990000", "120803.480000", "120804.970000", "120806.460000", "120807.950000", "120809.440000", "120810.930000", "120812.420000", "120813.910000", "120815.400000", "120816.890000", "120818.380000", "120819.870000", "120821.360000", "120822.850000", "120824.340000", "120825.830000", "120827.320000", "120828.810000", "120830.300000", "120831.790000", "120833.280000", "120834.770000", "120836.260000", "120837.750000", "120839.240000", "120840.730000", "120842.220000", "120843.710000", "120845.200000", "120846.690000", "120848.180000", "120849.670000", "120851.160000"],
      "ContentTime": ["120008.942000", "120008.945000", "120008.948000", "120008.950000", "120008.958000", "120008.960000", "120008.963000", "120008.973000", "120008.976000", "120008.979000", "120008.981000", "120008.984000", "120008.986000", "120008.989000", "120008.991000", "120008.994000", "120008.997000", "120009.000000", "120009.003000", "120009.005000", "120028.979000", "120028.981000", "120028.997000", "120029.001000", "120029.003000", "120029.006000", "120029.009000", "120029.011000", "120029.014000", "120029.023000", "120029.026000", "120029.028000", "120029.031000", "120029.033000", "120029.036000", "120029.038000", "120029.041000", "120029.043000", "120029.046000", "120029.048000", "120048.955000", "120048.958000", "120048.960000", "120048.969000", "120048.971000", "120048.974000", "120048.976000", "120048.979000", "120048.982000", "120048.984000", "120048.987000", "120048.989000", "120048.992000", "120048.994000", "120048.997000", "120049.001000", "120049.003000", "120049.006000", "120049.008000", "120049.011000", "120108.937000", "120108.939000", "120108.942000", "120108.957000", "120108.960000", "120108.962000", "120108.965000", "120108.967000", "120108.970000", "120108.972000", "120108.975000", "120108.978000", "120108.980000", "120108.983000", "120108.985000", "120108.988000", "120108.990000", "120108.993000", "120108.995000", "120108.998000", "120109.002000", "120148.986000", "120148.989000", "120148.992000", "120148.994000", "120148.997000", "120149.000000", "120149.003000", "120149.006000", "120149.008000", "120149.011000", "120149.015000", "120149.017000", "120149.020000", "120149.023000", "120149.025000", "120149.053000", "120149.056000", "120149.059000", "120149.061000", "120149.064000", "120149.066000", "120149.069000", "120149.072000", "120149.074000", "120149.077000", "120149.079000", "120149.082000", "120149.084000", "120149.087000", "120149.089000", "120149.092000", "120149.095000", "120229.091000", "120229.094000", "120229.096000", "120229.099000", "120229.103000", "120229.105000", "120229.108000", "120229.111000", "120229.113000", "120229.116000", "120229.118000", "120229.121000", "120229.123000", "120229.126000", "120229.128000", "120229.131000", "120229.134000", "120229.136000", "120229.139000", "120229.141000", "120229.145000", "120229.148000", "120229.150000", "120229.161000", "120229.164000", "120229.166000", "120229.169000", "120308.977000", "120308.980000", "120308.983000", "120308.985000", "120308.988000", "120308.990000", "120308.993000", "120308.996000", "120308.998000", "120309.002000", "120309.004000", "120309.007000", "120309.009000", "120309.012000", "120309.015000", "120309.017000", "120309.020000", "120309.023000", "120309.025000", "120309.028000", "120309.030000", "120309.033000", "120309.035000", "120309.038000", "120309.040000", "120309.043000", "120309.045000", "120348.973000", "120348.976000", "120348.979000", "120348.981000", "120348.984000", "120348.986000", "120348.989000", "120348.992000", "120348.994000", "120348.997000", "120349.000000", "120349.003000", "120349.005000", "120349.008000", "120349.010000", "120349.013000", "120349.016000", "120349.018000", "120349.021000", "120349.024000", "120349.026000", "120349.029000", "120349.031000", "120349.034000", "120349.037000", "120349.039000", "120349.042000", "120428.976000", "120428.979000", "120428.982000", "120428.984000", "120428.987000", "120428.990000", "120428.992000", "120428.995000", "120428.997000", "120429.001000", "120429.004000", "120429.006000", "120429.009000", "120429.011000", "120429.014000", "120429.017000", "120429.019000", "120429.022000", "120429.024000", "120429.027000", "120429.046000", "120429.049000", "120429.052000", "120429.054000", "120429.057000", "120429.059000", "120429.062000", "120508.984000", "120508.987000", "120508.990000", "120508.992000", "120508.995000", "120508.997000", "120509.001000", "120509.003000", "120509.006000", "120509.009000", "120509.011000", "120509.014000", "120509.016000", "120509.019000", "120509.021000", "120509.024000", "120509.027000", "120509.029000", "120509.032000", "120509.034000", "120509.037000", "120509.039000", "120509.042000", "120509.045000", "120509.047000", "120509.056000", "120509.058000", "120549.009000", "120549.012000", "120549.014000", "120549.017000", "120549.019000", "120549.022000", "120549.025000", "120549.027000", "120549.030000", "120549.032000", "120549.035000", "120549.037000", "120549.040000", "120549.043000", "120549.045000", "120549.048000", "120549.050000", "120549.053000", "120549.056000", "120549.058000", "120549.061000", "120549.063000", "120549.066000", "120549.069000", "120549.071000", "120549.074000", "120628.960000", "120628.963000", "120628.966000", "120628.968000", "120628.971000", "120628.973000", "120628.976000", "120628.978000", "120628.981000", "120628.984000", "120628.986000", "120628.990000", "120628.992000", "120628.995000", "120628.998000", "120629.001000", "120629.004000", "120629.006000", "120629.009000", "120629.012000", "120629.014000", "120629.017000", "120629.019000", "120629.022000", "120629.024000", "120629.027000", "120629.030000", "120708.974000", "120708.977000", "120708.979000", "120708.982000", "120708.985000", "120708.987000", "120708.990000", "120708.998000", "120709.002000", "120709.004000", "120709.007000", "120709.010000", "120709.012000", "120709.015000", "120709.017000", "120709.020000", "120709.022000", "120709.025000", "120709.028000", "120709.030000", "120709.033000", "120709.035000", "120709.038000", "120709.040000", "120709.043000", "120709.046000", "120709.048000", "120728.910000", "120728.913000", "120728.915000", "120728.918000", "120728.920000", "120728.923000", "120728.926000", "120728.928000", "120728.931000", "120728.933000", "120728.950000", "120728.952000", "120728.955000", "120728.957000", "120808.970000", "120808.973000", "120808.976000", "120808.978000", "120808.981000", "120808.984000", "120808.986000", "120808.989000", "120808.991000", "120808.994000", "120808.997000", "120809.000000", "120809.003000", "120809.006000", "120809.008000", "120809.011000", "120809.013000", "120809.016000", "120809.018000", "120809.021000", "120809.024000", "120809.026000", "120809.029000", "120809.031000", "120809.034000", "120809.037000", "120848.979000", "120848.982000", "120848.984000", "120848.987000", "120848.990000", "120848.992000", "120848.995000", "120848.997000", "120849.001000", "120849.003000", "120849.006000", "120849.009000", "120849.011000", "120849.014000", "120849.016000", "120849.019000", "120849.022000", "120849.024000", "120849.027000", "120849.029000", "120849.032000", "120849.034000", "120849.037000", "120849.039000", "120849.042000", "120849.045000", "120849.054000", "120855.013000", "120855.016000", "120855.018000", "120855.021000"],
      "InstanceCreationTime": ["120008.942000", "120008.945000", "120008.948000", "120008.950000", "120008.958000", "120008.960000", "120008.963000", "120008.973000", "120008.976000", "120008.979000", "120008.981000", "120008.984000", "120008.986000", "120008.989000", "120008.991000", "120008.994000", "120008.997000", "120009.000000", "120009.003000", "120009.005000", "120028.979000", "120028.981000", "120028.997000", "120029.001000", "120029.003000", "120029.006000", "120029.009000", "120029.011000", "120029.014000", "120029.023000", "120029.026000", "120029.028000", "120029.031000", "120029.033000", "120029.036000", "120029.038000", "120029.041000", "120029.043000", "120029.046000", "120029.048000", "120048.955000", "120048.958000", "120048.960000", "120048.969000", "120048.971000", "120048.974000", "120048.976000", "120048.979000", "120048.982000", "120048.984000", "120048.987000", "120048.989000", "120048.992000", "120048.994000", "120048.997000", "120049.001000", "120049.003000", "120049.006000", "120049.008000", "120049.011000", "120108.937000", "120108.939000", "120108.942000", "120108.957000", "120108.960000", "120108.962000", "120108.965000", "120108.967000", "120108.970000", "120108.972000", "120108.975000", "120108.978000", "120108.980000", "120108.983000", "120108.985000", "120108.988000", "120108.990000", "120108.993000", "120108.995000", "120108.998000", "120109.002000", "120148.986000", "120148.989000", "120148.992000", "120148.994000", "120148.997000", "120149.000000", "120149.003000", "120149.006000", "120149.008000", "120149.011000", "120149.015000", "120149.017000", "120149.020000", "120149.023000", "120149.025000", "120149.053000", "120149.056000", "120149.059000", "120149.061000", "120149.064000", "120149.066000", "120149.069000", "120149.072000", "120149.074000", "120149.077000", "120149.079000", "120149.082000", "120149.084000", "120149.087000", "120149.089000", "120149.092000", "120149.095000", "120229.091000", "120229.094000", "120229.096000", "120229.099000", "120229.103000", "120229.105000", "120229.108000", "120229.111000", "120229.113000", "120229.116000", "120229.118000", "120229.121000", "120229.123000", "120229.126000", "120229.128000", "120229.131000", "120229.134000", "120229.136000", "120229.139000", "120229.141000", "120229.145000", "120229.148000", "120229.150000", "120229.161000", "120229.164000", "120229.166000", "120229.169000", "120308.977000", "120308.980000", "120308.983000", "120308.985000", "120308.988000", "120308.990000", "120308.993000", "120308.996000", "120308.998000", "120309.002000", "120309.004000", "120309.007000", "120309.009000", "120309.012000", "120309.015000", "120309.017000", "120309.020000", "120309.023000", "120309.025000", "120309.028000", "120309.030000", "120309.033000", "120309.035000", "120309.038000", "120309.040000", "120309.043000", "120309.045000", "120348.973000", "120348.976000", "120348.979000", "120348.981000", "120348.984000", "120348.986000", "120348.989000", "120348.992000", "120348.994000", "120348.997000", "120349.000000", "120349.003000", "120349.005000", "120349.008000", "120349.010000", "120349.013000", "120349.016000", "120349.018000", "120349.021000", "120349.024000", "120349.026000", "120349.029000", "120349.031000", "120349.034000", "120349.037000", "120349.039000", "120349.042000", "120428.976000", "120428.979000", "120428.982000", "120428.984000", "120428.987000", "120428.990000", "120428.992000", "120428.995000", "120428.997000", "120429.001000", "120429.004000", "120429.006000", "120429.009000", "120429.011000", "120429.014000", "120429.017000", "120429.019000", "120429.022000", "120429.024000", "120429.027000", "120429.046000", "120429.049000", "120429.052000", "120429.054000", "120429.057000", "120429.059000", "120429.062000", "120508.984000", "120508.987000", "120508.990000", "120508.992000", "120508.995000", "120508.997000", "120509.001000", "120509.003000", "120509.006000", "120509.009000", "120509.011000", "120509.014000", "120509.016000", "120509.019000", "120509.021000", "120509.024000", "120509.027000", "120509.029000", "120509.032000", "120509.034000", "120509.037000", "120509.039000", "120509.042000", "120509.045000", "120509.047000", "120509.056000", "120509.058000", "120549.009000", "120549.012000", "120549.014000", "120549.017000", "120549.019000", "120549.022000", "120549.025000", "120549.027000", "120549.030000", "120549.032000", "120549.035000", "120549.037000", "120549.040000", "120549.043000", "120549.045000", "120549.048000", "120549.050000", "120549.053000", "120549.056000", "120549.058000", "120549.061000", "120549.063000", "120549.066000", "120549.069000", "120549.071000", "120549.074000", "120628.960000", "120628.963000", "120628.966000", "120628.968000", "120628.971000", "120628.973000", "120628.976000", "120628.978000", "120628.981000", "120628.984000", "120628.986000", "120628.990000", "120628.992000", "120628.995000", "120628.998000", "120629.001000", "120629.004000", "120629.006000", "120629.009000", "120629.012000", "120629.014000", "120629.017000", "120629.019000", "120629.022000", "120629.024000", "120629.027000", "120629.030000", "120708.974000", "120708.977000", "120708.979000", "120708.982000", "120708.985000", "120708.987000", "120708.990000", "120708.998000", "120709.002000", "120709.004000", "120709.007000", "120709.010000", "120709.012000", "120709.015000", "120709.017000", "120709.020000", "120709.022000", "120709.025000", "120709.028000", "120709.030000", "120709.033000", "120709.035000", "120709.038000", "120709.040000", "120709.043000", "120709.046000", "120709.048000", "120728.910000", "120728.913000", "120728.915000", "120728.918000", "120728.920000", "120728.923000", "120728.926000", "120728.928000", "120728.931000", "120728.933000", "120728.950000", "120728.952000", "120728.955000", "120728.957000", "120808.970000", "120808.973000", "120808.976000", "120808.978000", "120808.981000", "120808.984000", "120808.986000", "120808.989000", "120808.991000", "120808.994000", "120808.997000", "120809.000000", "120809.003000", "120809.006000", "120809.008000", "120809.011000", "120809.013000", "120809.016000", "120809.018000", "120809.021000", "120809.024000", "120809.026000", "120809.029000", "120809.031000", "120809.034000", "120809.037000", "120848.979000", "120848.982000", "120848.984000", "120848.987000", "120848.990000", "120848.992000", "120848.995000", "120848.997000", "120849.001000", "120849.003000", "120849.006000", "120849.009000", "120849.011000", "120849.014000", "120849.016000", "120849.019000", "120849.022000", "120849.024000", "120849.027000", "120849.029000", "120849.032000", "120849.034000", "120849.037000", "120849.039000", "120849.042000", "120849.045000", "120849.054000", "120855.013000", "120855.016000", "120855.018000", "120855.021000"],
