{
  "AcquisitionMatrixPE": 104,
  "AcquisitionNumber": 1,
  "AcquisitionTime": "11:21:45.235000",
  "BandwidthPerPixelPhaseEncode": 17.17,
  "BaseResolution": 104,
  "BodyPartExamined": "BRAIN",
  "CoilCombinationMethod": "Sum of Squares",
  "ConsistencyInfo": "N4_VE11C_LATEST_20160120",
  "ConversionSoftware": "dcm2niix",
  "ConversionSoftwareVersion": "v1.0.20220505",
  "DerivedVendorReportedEchoSpacing": 0.000560011,
  "DeviceSerialNumber": "167006",
  "DwellTime": 2.1e-06,
  "EchoTime": 0.037,
  "EchoTime1": 0.037,
  "EchoTime2": 0.001,
  "EchoTrainLength": 104,
  "EffectiveEchoSpacing": 0.000560011,
  "FlipAngle": 52,
  "HeudiconvVersion": "0.5.3.post811+g6206e14",
  "ImageComments": "Unaliased MB4/PE3/LB",
  "ImageOrientationPatientDICOM": [0.994527, 0.100228, 0.0294971, -0.0861354, 0.946352, -0.311446],
  "ImageOrientationText": "Tra>Cor(-17.9)>Sag(3.4)",
  "ImageType": [
    "ORIGINAL",
    "PRIMARY",
    "P",
    "MB",
    "ND",
    "MOSAIC",
    "PHASE"
],
  "ImagingFrequency": 123.26,
  "InPlanePhaseEncodingDirectionDICOM": "COL",
  "InstitutionAddress": "Chemin Queen-Mary 4565,Montreal,District,CA,H3W 1W5",
  "InstitutionName": "IUGM",
  "InstitutionalDepartmentName": "Department",
  "MRAcquisitionType": "2D",
  "MagneticFieldStrength": 3,
  "Manufacturer": "Siemens",
  "ManufacturersModelName": "Prisma_fit",
  "MatrixCoilMode": "SENSE",
  "Modality": "MR",
  "MultibandAccelerationFactor": 4,
  "PartialFourier": 1,
  "PatientPosition": "HFS",
  "PercentPhaseFOV": 100,
  "PercentSampling": 100,
  "PhaseEncodingDirection": "j",
  "PhaseEncodingSteps": 104,
  "PhaseResolution": 1,
  "PixelBandwidth": 2290,
  "ProcedureStepDescription": "games^mario3",
  "ProtocolName": "func_task-mario3_run-01",
  "PulseSequenceDetails": "%CustomerSeq%\\cmrr_mbep2d_bold",
  "ReceiveCoilActiveElements": "HC1-7;NC1,2",
  "ReceiveCoilName": "HeadNeck_64",
  "ReconMatrixPE": 104,
  "RepetitionTime": 1.49,
  "SAR": 0.0668929,
  "ScanOptions": "FS",
  "ScanningSequence": "EP",
  "SequenceName": "epfid2d1_104",
  "SequenceVariant": "SK\\SS",
  "SeriesDescription": "func_task-mario3_run-01",
  "SeriesNumber": 11,
  "ShimSetting": [622, -7195, -8782, 671, 107, 20, -26, 20],
  "SliceThickness": 2,
  "SliceTiming": [0, 0.785, 0.1, 0.8825, 0.1975, 0.98, 0.295, 1.08, 0.3925, 1.1775, 0.49, 1.275, 0.59, 1.3725, 0.6875, 0, 0.785, 0.1, 0.8825, 0.1975, 0.98, 0.295, 1.08, 0.3925, 1.1775, 0.49, 1.275, 0.59, 1.3725, 0.6875, 0, 0.785, 0.1, 0.8825, 0.1975, 0.98, 0.295, 1.08, 0.3925, 1.1775, 0.49, 1.275, 0.59, 1.3725, 0.6875, 0, 0.785, 0.1, 0.8825, 0.1975, 0.98, 0.295, 1.08, 0.3925, 1.1775, 0.49, 1.275, 0.59, 1.3725, 0.6875],
  "SoftwareVersions": "syngo MR E11",
  "SpacingBetweenSlices": 2,
  "StationName": "MRC35049",
  "TaskName": "mario3",
  "TotalReadoutTime": 0.0576811,
  "TxRefAmp": 291.322,
  "WipMemBlock": "92056720-b167-4e87-a654-b74ece94c4b9||Sequence: R017 ve11c/master r/75a17815+; Jun 28 2022 16:32:11 by eja",
  "dcmmeta_affine": [
    [-1.9890543222427368, -0.1722707599401474, 0.1182602196931839, 110.77277374267578],
    [-0.200455442070961, 1.8927042484283447, -0.6144006252288818, -52.15912628173828],
    [0.05899418517947197, 0.6228910684585571, 1.8996121883392334, -52.513362884521484],
    [0.0, 0.0, 0.0, 1.0]
],
  "dcmmeta_reorient_transform": [
    [0.0, -1.0, 0.0, 103.0],
    [1.0, 0.0, 0.0, 0.0],
    [0.0, 0.0, 1.0, 0.0],
    [0.0, 0.0, 0.0, 1.0]
],
  "dcmmeta_shape": [104, 104, 60, 301],
  "dcmmeta_slice_dim": 2,
  "dcmmeta_version": 0.6,
  "global": {
    "const": {
      "AcquisitionMatrix": [104, 0, 0, 104],
      "AngioFlag": "N",
      "BitsAllocated": 16,
      "BitsStored": 16,
      "BodyPartExamined": "BRAIN",
      "Columns": 832,
      "EchoNumbers": 1,
      "EchoTime": 37.0,
      "EchoTrainLength": 104,
      "FlipAngle": 52.0,
      "HighBit": 15,
      "ImageOrientationPatient": [0.99452718727261, 0.10022771750882, 0.02949709169753, -0.0861353799, 0.94635213869673, -0.3114455424526],
      "ImagePositionPatient": [-754.33812475284, -904.69955068406, 216.90289027933],
      "ImageType": [
        "ORIGINAL",
        "PRIMARY",
        "P",
        "MB",
        "ND",
        "MOSAIC"
],
      "ImagedNucleus": "1H",
      "ImagingFrequency": 123.26021,
      "InPlanePhaseEncodingDirection": "COL",
      "LargestImagePixelValue": 4095,
      "MRAcquisitionType": "2D",
      "MagneticFieldStrength": 3.0,
      "Manufacturer": "SIEMENS",
      "ManufacturerModelName": "Prisma_fit",
      "Modality": "MR",
      "NumberOfAverages": 1.0,
      "NumberOfPhaseEncodingSteps": 104,
      "PercentPhaseFieldOfView": 100.0,
      "PercentSampling": 100.0,
      "PerformedProcedureStepStartTime": "111840.497000",
      "PhotometricInterpretation": "MONOCHROME2",
      "PixelBandwidth": 2290.0,
      "PixelRepresentation": 0,
      "PixelSpacing": [2.0, 2.0],
      "ProtocolName": "func_task-mario3_run-01",
      "RepetitionTime": 1490.0,
      "RescaleIntercept": -4096.0,
      "RescaleSlope": 2.0,
      "RescaleType": "US",
      "Rows": 832,
      "SAR": 0.06689285688671,
      "SamplesPerPixel": 1,
      "ScanOptions": "FS",
      "ScanningSequence": "EP",
      "SequenceName": "epfid2d1_104",
      "SequenceVariant": [
        "SK",
        "SS"
],
      "SeriesDescription": "func_task-mario3_run-01",
      "SeriesNumber": 11,
      "SeriesTime": "112305.444000",
      "SliceLocation": -27.304205771601,
      "SliceThickness": 2.0,
      "SmallestImagePixelValue": 0,
      "SoftwareVersions": "syngo MR E11",
      "SpacingBetweenSlices": 1.999999961631,
      "SpecificCharacterSet": "ISO_IR 100",
      "StudyID": "2",
      "StudyTime": "111840.440000",
      "TransmitCoilName": "Body",
      "VariableFlipAngleFlag": "N",
      "WindowCenterWidthExplanation": "Algo1",
      "dBdt": 0.0},
    "slices": {}
  },
  "time": {
    "samples": {
      "AcquisitionNumber": [1, 2, 3, 4, 5, 6, 7, 8, 9, 10, 11, 12, 13, 14, 15, 16, 17, 18, 19, 20, 21, 22, 23, 24, 25, 26, 27, 28, 29, 30, 31, 32, 33, 34, 35, 36, 37, 38, 39, 40, 41, 42, 43, 44, 45, 46, 47, 48, 49, 50, 51, 52, 53, 54, 55, 56, 57, 58, 59, 60, 61, 62, 63, 64, 65, 66, 67, 68, 69, 70, 71, 72, 73, 74, 75, 76, 77, 78, 79, 80, 81, 82, 83, 84, 85, 86, 87, 88, 89, 90, 91, 92, 93, 94, 95, 96, 97, 98, 99, 100, 101, 102, 103, 104, 105, 106, 107, 108, 109, 110, 111, 112, 113, 114, 115, 116, 117, 118, 119, 120, 121, 122, 123, 124, 125, 126, 127, 128, 129, 130, 131, 132, 133, 134, 135, 136, 137, 138, 139, 140, 141, 142, 143, 144, 145, 146, 147, 148, 149, 150, 151, 152, 153, 154, 155, 156, 157, 158, 159, 160, 161, 162, 163, 164, 165, 166, 167, 168, 169, 170, 171, 172, 173, 174, 175, 176, 177, 178, 179, 180, 181, 182, 183, 184, 185, 186, 187, 188, 189, 190, 191, 192, 193, 194, 195, 196, 197, 198, 199, 200, 201, 202, 203, 204, 205, 206, 207, 208, 209, 210, 211, 212, 213, 214, 215, 216, 217, 218, 219, 220, 221, 222, 223, 224, 225, 226, 227, 228, 229, 230, 231, 232, 233, 234, 235, 236, 237, 238, 239, 240, 241, 242, 243, 244, 245, 246, 247, 248, 249, 250, 251, 252, 253, 254, 255, 256, 257, 258, 259, 260, 261, 262, 263, 264, 265, 266, 267, 268, 269, 270, 271, 272, 273, 274, 275, 276, 277, 278, 279, 280, 281, 282, 283, 284, 285, 286, 287, 288, 289, 290, 291, 292, 293, 294, 295, 296, 297, 298, 299, 300, 301],
      "AcquisitionTime": ["112145.235000", "112146.725000", "112148.215000", "112149.705000", "112151.195000", "112152.685000", "112154.175000", "112155.665000", "112157.155000", "112158.645000", "112200.135000", "112201.625000", "112203.115000", "112204.605000", "112206.095000", "112207.585000", "112209.075000", "112210.565000", "112212.055000", "112213.545000", "112215.035000", "112216.525000", "112218.015000", "112219.505000", "112220.995000", "112222.485000", "112223.975000", "112225.465000", "112226.955000", "112228.445000", "112229.935000", "112231.425000", "112232.915000", "112234.405000", "112235.895000", "112237.385000", "112238.875000", "112240.365000", "112241.855000", "112243.345000", "112244.835000", "112246.325000", "112247.815000", "112249.305000", "112250.795000", "112252.285000", "112253.775000", "112255.265000", "112256.755000", "112258.245000", "112259.735000", "112301.225000", "112302.715000", "112304.205000", "112305.695000", "112307.185000", "112308.675000", "112310.165000", "112311.655000", "112313.145000", "112314.635000", "112316.125000", "112317.615000", "112319.105000", "112320.595000", "112322.085000", "112323.575000", "112325.065000", "112326.555000", "112328.045000", "112329.535000", "112331.025000", "112332.515000", "112334.005000", "112335.495000", "112336.985000", "112338.475000", "112339.965000", "112341.455000", "112342.945000", "112344.435000", "112345.925000", "112347.415000", "112348.905000", "112350.395000", "112351.885000", "112353.375000", "112354.865000", "112356.355000", "112357.845000", "112359.335000", "112400.825000", "112402.315000", "112403.805000", "112405.295000", "112406.785000", "112408.275000", "112409.765000", "112411.255000", "112412.745000", "112414.235000", "112415.725000", "112417.215000", "112418.705000", "112420.195000", "112421.685000", "112423.175000", "112424.665000", "112426.155000", "112427.645000", "112429.135000", "112430.625000", "112432.115000", "112433.605000", "112435.095000", "112436.585000", "112438.075000", "112439.565000", "112441.055000", "112442.545000", "112444.035000", "112445.525000", "112447.015000", "112448.505000", "112449.995000", "112451.485000", "112452.975000", "112454.465000", "112455.955000", "112457.445000", "112458.935000", "112500.425000", "112501.915000", "112503.405000", "112504.895000", "112506.385000", "112507.875000", "112509.365000", "112510.855000", "112512.345000", "112513.835000", "112515.325000", "112516.815000", "112518.305000", "112519.795000", "112521.285000", "112522.775000", "112524.265000", "112525.755000", "112527.245000", "112528.735000", "112530.225000", "112531.715000", "112533.205000", "112534.695000", "112536.185000", "112537.675000", "112539.165000", "112540.655000", "112542.145000", "112543.635000", "112545.125000", "112546.615000", "112548.105000", "112549.595000", "112551.085000", "112552.575000", "112554.065000", "112555.555000", "112557.045000", "112558.535000", "112600.025000", "112601.515000", "112603.005000", "112604.495000", "112605.985000", "112607.475000", "112608.965000", "112610.455000", "112611.945000", "112613.435000", "112614.925000", "112616.415000", "112617.905000", "112619.395000", "112620.885000", "112622.375000", "112623.865000", "112625.355000", "112626.845000", "112628.335000", "112629.825000", "112631.315000", "112632.805000", "112634.295000", "112635.785000", "112637.275000", "112638.765000", "112640.255000", "112641.745000", "112643.235000", "112644.725000", "112646.215000", "112647.705000", "112649.195000", "112650.685000", "112652.175000", "112653.665000", "112655.155000", "112656.645000", "112658.135000", "112659.625000", "112701.115000", "112702.605000", "112704.095000", "112705.585000", "112707.075000", "112708.565000", "112710.055000", "112711.545000", "112713.035000", "112714.525000", "112716.015000", "112717.505000", "112718.995000", "112720.485000", "112721.975000", "112723.465000", "112724.955000", "112726.445000", "112727.935000", "112729.425000", "112730.915000", "112732.405000", "112733.895000", "112735.385000", "112736.875000", "112738.365000", "112739.855000", "112741.345000", "112742.835000", "112744.325000", "112745.815000", "112747.305000", "112748.795000", "112750.285000", "112751.775000", "112753.265000", "112754.755000", "112756.245000", "112757.735000", "112759.225000", "112800.715000", "112802.205000", "112803.695000", "112805.185000", "112806.675000", "112808.165000", "112809.655000", "112811.145000", "112812.635000", "112814.125000", "112815.615000", "112817.105000", "112818.595000", "112820.085000", "112821.575000", "112823.065000", "112824.555000", "112826.045000", "112827.535000", "112829.025000", "112830.515000", "112832.005000", "112833.495000", "112834.985000", "112836.475000", "112837.965000", "112839.455000", "112840.945000", "112842.435000", "112843.925000", "112845.415000", "112846.905000", "112848.395000", "112849.885000", "112851.375000", "112852.865000", "112854.355000", "112855.845000", "112857.335000", "112858.825000", "112900.315000", "112901.805000", "112903.295000", "112904.785000", "112906.275000", "112907.765000", "112909.255000", "112910.745000", "112912.235000"],
      "ContentTime": ["112305.446000", "112305.458000", "112305.461000", "112305.465000", "112305.467000", "112305.470000", "112305.473000", "112305.476000", "112305.479000", "112305.499000", "112305.501000", "112305.504000", "112305.506000", "112305.509000", "112305.512000", "112305.514000", "112305.517000", "112305.519000", "112305.522000", "112305.524000", "112305.527000", "112305.530000", "112305.532000", "112305.535000", "112305.537000", "112305.540000", "112305.542000", "112305.545000", "112305.547000", "112305.550000", "112305.552000", "112325.377000", "112325.380000", "112325.382000", "112325.385000", "112325.387000", "112325.390000", "112325.393000", "112325.395000", "112325.398000", "112325.405000", "112325.408000", "112325.410000", "112325.413000", "112325.416000", "112325.418000", "112325.421000", "112325.423000", "112325.426000", "112325.428000", "112325.431000", "112345.374000", "112345.377000", "112345.379000", "112345.382000", "112345.384000", "112345.387000", "112345.389000", "112345.392000", "112345.395000", "112345.397000", "112345.400000", "112345.402000", "112345.405000", "112345.407000", "112345.410000", "112345.412000", "112345.415000", "112345.418000", "112345.420000", "112345.423000", "112345.425000", "112405.339000", "112405.341000", "112405.344000", "112405.353000", "112405.356000", "112405.359000", "112405.361000", "112405.364000", "112405.366000", "112405.369000", "112405.371000", "112405.374000", "112405.376000", "112405.379000", "112405.382000", "112405.384000", "112405.387000", "112405.389000", "112405.392000", "112405.394000", "112445.392000", "112445.395000", "112445.397000", "112445.400000", "112445.403000", "112445.405000", "112445.408000", "112445.410000", "112445.413000", "112445.415000", "112445.418000", "112445.421000", "112445.423000", "112445.426000", "112445.428000", "112445.431000", "112445.433000", "112445.436000", "112445.438000", "112445.441000", "112445.444000", "112445.446000", "112445.449000", "112445.451000", "112445.454000", "112445.456000", "112445.459000", "112445.462000", "112525.372000", "112525.375000", "112525.378000", "112525.380000", "112525.383000", "112525.385000", "112525.388000", "112525.390000", "112525.393000", "112525.396000", "112525.398000", "112525.401000", "112525.403000", "112525.406000", "112525.408000", "112525.411000", "112525.414000", "112525.416000", "112525.419000", "112525.421000", "112525.424000", "112525.426000", "112525.429000", "112525.432000", "112525.434000", "112525.437000", "112525.439000", "112605.362000", "112605.365000", "112605.368000", "112605.370000", "112605.373000", "112605.375000", "112605.378000", "112605.381000", "112605.383000", "112605.386000", "112605.388000", "112605.391000", "112605.393000", "112605.396000", "112605.399000", "112605.401000", "112605.404000", "112605.406000", "112605.409000", "112605.411000", "112605.414000", "112605.416000", "112605.419000", "112605.422000", "112605.424000", "112605.427000", "112605.429000", "112645.364000", "112645.367000", "112645.369000", "112645.372000", "112645.375000", "112645.377000", "112645.380000", "112645.382000", "112645.385000", "112645.388000", "112645.390000", "112645.393000", "112645.395000", "112645.398000", "112645.400000", "112645.403000", "112645.406000", "112645.408000", "112645.411000", "112645.413000", "112645.416000", "112645.418000", "112645.421000", "112645.424000", "112645.426000", "112645.429000", "112725.384000", "112725.387000", "112725.390000", "112725.392000", "112725.395000", "112725.398000", "112725.400000", "112725.403000", "112725.405000", "112725.408000", "112725.410000", "112725.413000", "112725.416000", "112725.418000", "112725.421000", "112725.423000", "112725.426000", "112725.429000", "112725.431000", "112725.434000", "112725.436000", "112725.439000", "112725.441000", "112725.444000", "112725.447000", "112725.449000", "112725.452000", "112745.320000", "112745.322000", "112745.325000", "112745.328000", "112745.330000", "112745.333000", "112745.335000", "112745.338000", "112745.340000", "112745.343000", "112745.345000", "112745.348000", "112745.351000", "112745.353000", "112825.368000", "112825.371000", "112825.377000", "112825.380000", "112825.382000", "112825.385000", "112825.388000", "112825.390000", "112825.393000", "112825.395000", "112825.398000", "112825.401000", "112825.403000", "112825.406000", "112825.408000", "112825.411000", "112825.413000", "112825.416000", "112825.419000", "112825.421000", "112825.424000", "112825.426000", "112825.429000", "112825.431000", "112825.434000", "112825.437000", "112825.439000", "112905.404000", "112905.407000", "112905.409000", "112905.412000", "112905.414000", "112905.417000", "112905.419000", "112905.422000", "112905.425000", "112905.427000", "112905.430000", "112905.440000", "112905.442000", "112905.445000", "112905.447000", "112905.450000", "112905.453000", "112905.455000", "112905.458000", "112905.460000", "112905.463000", "112905.465000", "112905.468000", "112905.470000", "112905.473000", "112905.475000", "112915.055000", "112915.058000", "112915.060000", "112915.063000", "112915.066000", "112915.068000", "112915.071000"],
      "InstanceCreationTime": ["112305.446000", "112305.458000", "112305.461000", "112305.465000", "112305.467000", "112305.470000", "112305.473000", "112305.476000", "112305.479000", "112305.499000", "112305.501000", "112305.504000", "112305.506000", "112305.509000", "112305.512000", "112305.514000", "112305.517000", "112305.519000", "112305.522000", "112305.524000", "112305.527000", "112305.530000", "112305.532000", "112305.535000", "112305.537000", "112305.540000", "112305.542000", "112305.545000", "112305.547000", "112305.550000", "112305.552000", "112325.377000", "112325.380000", "112325.382000", "112325.385000", "112325.387000", "112325.390000", "112325.393000", "112325.395000", "112325.398000", "112325.405000", "112325.408000", "112325.410000", "112325.413000", "112325.416000", "112325.418000", "112325.421000", "112325.423000", "112325.426000", "112325.428000", "112325.431000", "112345.374000", "112345.377000", "112345.379000", "112345.382000", "112345.384000", "112345.387000", "112345.389000", "112345.392000", "112345.395000", "112345.397000", "112345.400000", "112345.402000", "112345.405000", "112345.407000", "112345.410000", "112345.412000", "112345.415000", "112345.418000", "112345.420000", "112345.423000", "112345.425000", "112405.339000", "112405.341000", "112405.344000", "112405.353000", "112405.356000", "112405.359000", "112405.361000", "112405.364000", "112405.366000", "112405.369000", "112405.371000", "112405.374000", "112405.376000", "112405.379000", "112405.382000", "112405.384000", "112405.387000", "112405.389000", "112405.392000", "112405.394000", "112445.392000", "112445.395000", "112445.397000", "112445.400000", "112445.403000", "112445.405000", "112445.408000", "112445.410000", "112445.413000", "112445.415000", "112445.418000", "112445.421000", "112445.423000", "112445.426000", "112445.428000", "112445.431000", "112445.433000", "112445.436000", "112445.438000", "112445.441000", "112445.444000", "112445.446000", "112445.449000", "112445.451000", "112445.454000", "112445.456000", "112445.459000", "112445.462000", "112525.372000", "112525.375000", "112525.378000", "112525.380000", "112525.383000", "112525.385000", "112525.388000", "112525.390000", "112525.393000", "112525.396000", "112525.398000", "112525.401000", "112525.403000", "112525.406000", "112525.408000", "112525.411000", "112525.414000", "112525.416000", "112525.419000", "112525.421000", "112525.424000", "112525.426000", "112525.429000", "112525.432000", "112525.434000", "112525.437000", "112525.439000", "112605.362000", "112605.365000", "112605.368000", "112605.370000", "112605.373000", "112605.375000", "112605.378000", "112605.381000", "112605.383000", "112605.386000", "112605.388000", "112605.391000", "112605.393000", "112605.396000", "112605.399000", "112605.401000", "112605.404000", "112605.406000", "112605.409000", "112605.411000", "112605.414000", "112605.416000", "112605.419000", "112605.422000", "112605.424000", "112605.427000", "112605.429000", "112645.364000", "112645.367000", "112645.369000", "112645.372000", "112645.375000", "112645.377000", "112645.380000", "112645.382000", "112645.385000", "112645.388000", "112645.390000", "112645.393000", "112645.395000", "112645.398000", "112645.400000", "112645.403000", "112645.406000", "112645.408000", "112645.411000", "112645.413000", "112645.416000", "112645.418000", "112645.421000", "112645.424000", "112645.426000", "112645.429000", "112725.384000", "112725.387000", "112725.390000", "112725.392000", "112725.395000", "112725.398000", "112725.400000", "112725.403000", "112725.405000", "112725.408000", "112725.410000", "112725.413000", "112725.416000", "112725.418000", "112725.421000", "112725.423000", "112725.426000", "112725.429000", "112725.431000", "112725.434000", "112725.436000", "112725.439000", "112725.441000", "112725.444000", "112725.447000", "112725.449000", "112725.452000", "112745.320000", "112745.322000", "112745.325000", "112745.328000", "112745.330000", "112745.333000", "112745.335000", "112745.338000", "112745.340000", "112745.343000", "112745.345000", "112745.348000", "112745.351000", "112745.353000", "112825.368000", "112825.371000", "112825.377000", "112825.380000", "112825.382000", "112825.385000", "112825.388000", "112825.390000", "112825.393000", "112825.395000", "112825.398000", "112825.401000", "112825.403000", "112825.406000", "112825.408000", "112825.411000", "112825.413000", "112825.416000", "112825.419000", "112825.421000", "112825.424000", "112825.426000", "112825.429000", "112825.431000", "112825.434000", "112825.437000", "112825.439000", "112905.404000", "112905.407000", "112905.409000", "112905.412000", "112905.414000", "112905.417000", "112905.419000", "112905.422000", "112905.425000", "112905.427000", "112905.430000", "112905.440000", "112905.442000", "112905.445000", "112905.447000", "112905.450000", "112905.453000", "112905.455000", "112905.458000", "112905.460000", "112905.463000", "112905.465000", "112905.468000", "112905.470000", "112905.473000", "112905.475000", "112915.055000", "112915.058000", "112915.060000", "112915.063000", "112915.066000", "112915.068000", "112915.071000"],
      "InstanceNumber": [1, 2, 3, 4, 5, 6, 7, 8, 9, 10, 11, 12, 13, 14, 15, 16, 17, 18, 19, 20, 21, 22, 23, 24, 25, 26, 27, 28, 29, 30, 31, 32, 33, 34, 35, 36, 37, 38, 39, 40, 41, 42, 43, 44, 45, 46, 47, 48, 49, 50, 51, 52, 53, 54, 55, 56, 57, 58, 59, 60, 61, 62, 63, 64, 65, 66, 67, 68, 69, 70, 71, 72, 73, 74, 75, 76, 77, 78, 79, 80, 81, 82, 83, 84, 85, 86, 87, 88, 89, 90, 91, 92, 93, 94, 95, 96, 97, 98, 99, 100, 101, 102, 103, 104, 105, 106, 107, 108, 109, 110, 111, 112, 113, 114, 115, 116, 117, 118, 119, 120, 121, 122, 123, 124, 125, 126, 127, 128, 129, 130, 131, 132, 133, 134, 135, 136, 137, 138, 139, 140, 141, 142, 143, 144, 145, 146, 147, 148, 149, 150, 151, 152, 153, 154, 155, 156, 157, 158, 159, 160, 161, 162, 163, 164, 165, 166, 167, 168, 169, 170, 171, 172, 173, 174, 175, 176, 177, 178, 179, 180, 181, 182, 183, 184, 185, 186, 187, 188, 189, 190, 191, 192, 193, 194, 195, 196, 197, 198, 199, 200, 201, 202, 203, 204, 205, 206, 207, 208, 209, 210, 211, 212, 213, 214, 215, 216, 217, 218, 219, 220, 221, 222, 223, 224, 225, 226, 227, 228, 229, 230, 231, 232, 233, 234, 235, 236, 237, 238, 239, 240, 241, 242, 243, 244, 245, 246, 247, 248, 249, 250, 251, 252, 253, 254, 255, 256, 257, 258, 259, 260, 261, 262, 263, 264, 265, 266, 267, 268, 269, 270, 271, 272, 273, 274, 275, 276, 277, 278, 279, 280, 281, 282, 283, 284, 285, 286, 287, 288, 289, 290, 291, 292, 293, 294, 295, 296, 297, 298, 299, 300, 301],
      "WindowCenter": [4790.0, 4788.0, 4788.0, 4792.0, 4792.0, 4788.0, 4788.0, 4792.0, 4788.0, 4790.0, 4786.0, 4814.0, 4790.0, 4788.0, 4786.0, 4792.0, 4788.0, 4788.0, 4788.0, 4814.0, 4812.0, 4784.0, 4784.0, 4788.0, 4788.0, 4788.0, 4788.0, 4792.0, 4788.0, 4788.0, 4790.0, 4786.0, 4790.0, 4788.0, 4786.0, 4790.0, 4790.0, 4786.0, 4784.0, 4788.0, 4790.0, 4788.0, 4786.0, 4788.0, 4792.0, 4784.0, 4788.0, 4790.0, 4786.0, 4788.0, 4786.0, 4788.0, 4784.0, 4788.0, 4786.0, 4788.0, 4786.0, 4786.0, 4786.0, 4786.0, 4790.0, 4786.0, 4792.0, 4788.0, 4790.0, 4784.0, 4788.0, 4784.0, 4788.0, 4788.0, 4784.0, 4784.0, 4786.0, 4782.0, 4788.0, 4790.0, 4788.0, 4788.0, 4786.0, 4786.0, 4788.0, 4784.0, 4790.0, 4788.0, 4788.0, 4788.0, 4786.0, 4784.0, 4792.0, 4782.0, 4788.0, 4786.0, 4788.0, 4784.0, 4786.0, 4788.0, 4790.0, 4784.0, 4790.0, 4784.0, 4790.0, 4784.0, 4784.0, 4788.0, 4784.0, 4790.0, 4784.0, 4784.0, 4786.0, 4790.0, 4788.0, 4786.0, 4788.0, 4788.0, 4790.0, 4790.0, 4786.0, 4788.0, 4786.0, 4786.0, 4788.0, 4786.0, 4788.0, 4788.0, 4788.0, 4788.0, 4784.0, 4788.0, 4784.0, 4790.0, 4786.0, 4790.0, 4784.0, 4784.0, 4786.0, 4788.0, 4788.0, 4784.0, 4788.0, 4788.0, 4784.0, 4788.0, 4786.0, 4790.0, 4790.0, 4786.0, 4790.0, 4788.0, 4790.0, 4784.0, 4788.0, 4786.0, 4790.0, 4784.0, 4786.0, 4790.0, 4790.0, 4788.0, 4788.0, 4786.0, 4790.0, 4786.0, 4786.0, 4788.0, 4790.0, 4784.0, 4786.0, 4786.0, 4788.0, 4786.0, 4786.0, 4788.0, 4786.0, 4792.0, 4788.0, 4792.0, 4790.0, 4786.0, 4786.0, 4788.0, 4784.0, 4788.0, 4788.0, 4786.0, 4788.0, 4784.0, 4790.0, 4792.0, 4786.0, 4786.0, 4786.0, 4786.0, 4786.0, 4788.0, 4790.0, 4792.0, 4790.0, 4788.0, 4790.0, 4786.0, 4786.0, 4784.0, 4790.0, 4786.0, 4790.0, 4788.0, 4788.0, 4788.0, 4792.0, 4788.0, 4788.0, 4786.0, 4790.0, 4788.0, 4788.0, 4788.0, 4812.0, 4788.0, 4792.0, 4790.0, 4786.0, 4812.0, 4788.0, 4784.0, 4786.0, 4784.0, 4792.0, 4790.0, 4786.0, 4786.0, 4792.0, 4792.0, 4788.0, 4786.0, 4786.0, 4790.0, 4786.0, 4790.0, 4788.0, 4792.0, 4784.0, 4792.0, 4786.0, 4794.0, 4786.0, 4790.0, 4788.0, 4788.0, 4790.0, 4790.0, 4792.0, 4790.0, 4788.0, 4788.0, 4786.0, 4788.0, 4786.0, 4788.0, 4790.0, 4814.0, 4790.0, 4788.0, 4786.0, 4788.0, 4786.0, 4788.0, 4814.0, 4790.0, 4786.0, 4786.0, 4788.0, 4786.0, 4786.0, 4788.0, 4788.0, 4788.0, 4790.0, 4788.0, 4814.0, 4810.0, 4790.0, 4786.0, 4790.0, 4788.0, 4786.0, 4788.0, 4792.0, 4792.0, 4786.0, 4786.0, 4790.0, 4788.0, 4782.0, 4786.0, 4788.0, 4786.0, 4788.0, 4794.0, 4786.0, 4786.0, 4788.0],
      "WindowWidth": [18558.0, 18556.0, 18554.0, 18562.0, 18560.0, 18558.0, 18552.0, 18558.0, 18556.0, 18552.0, 18556.0, 18592.0, 18562.0, 18558.0, 18554.0, 18560.0, 18558.0, 18556.0, 18556.0, 18596.0, 18588.0, 18558.0, 18552.0, 18558.0, 18556.0, 18560.0, 18560.0, 18562.0, 18558.0, 18558.0, 18562.0, 18558.0, 18560.0, 18560.0, 18556.0, 18558.0, 18558.0, 18558.0, 18558.0, 18564.0, 18560.0, 18560.0, 18562.0, 18564.0, 18566.0, 18560.0, 18560.0, 18562.0, 18560.0, 18560.0, 18562.0, 18562.0, 18562.0, 18564.0, 18564.0, 18558.0, 18560.0, 18558.0, 18558.0, 18560.0, 18558.0, 18556.0, 18566.0, 18562.0, 18564.0, 18556.0, 18558.0, 18560.0, 18562.0, 18564.0, 18562.0, 18566.0, 18556.0, 18562.0, 18562.0, 18560.0, 18566.0, 18566.0, 18556.0, 18566.0, 18564.0, 18558.0, 18562.0, 18562.0, 18566.0, 18562.0, 18562.0, 18558.0, 18566.0, 18560.0, 18566.0, 18570.0, 18562.0, 18560.0, 18562.0, 18560.0, 18562.0, 18558.0, 18564.0, 18564.0, 18562.0, 18564.0, 18558.0, 18564.0, 18560.0, 18560.0, 18558.0, 18564.0, 18566.0, 18562.0, 18564.0, 18558.0, 18562.0, 18564.0, 18566.0, 18566.0, 18562.0, 18566.0, 18562.0, 18566.0, 18564.0, 18562.0, 18566.0, 18562.0, 18566.0, 18566.0, 18564.0, 18562.0, 18558.0, 18562.0, 18562.0, 18564.0, 18566.0, 18560.0, 18558.0, 18562.0, 18562.0, 18562.0, 18570.0, 18562.0, 18562.0, 18560.0, 18562.0, 18560.0, 18568.0, 18564.0, 18562.0, 18564.0, 18568.0, 18560.0, 18564.0, 18564.0, 18562.0, 18564.0, 18558.0, 18568.0, 18562.0, 18564.0, 18562.0, 18560.0, 18560.0, 18558.0, 18560.0, 18560.0, 18564.0, 18562.0, 18566.0, 18560.0, 18562.0, 18562.0, 18562.0, 18562.0, 18558.0, 18566.0, 18566.0, 18566.0, 18566.0, 18560.0, 18564.0, 18562.0, 18562.0, 18564.0, 18564.0, 18560.0, 18562.0, 18560.0, 18562.0, 18562.0, 18560.0, 18566.0, 18560.0, 18564.0, 18564.0, 18562.0, 18564.0, 18564.0, 18562.0, 18562.0, 18564.0, 18566.0, 18562.0, 18564.0, 18564.0, 18562.0, 18562.0, 18566.0, 18562.0, 18564.0, 18566.0, 18564.0, 18566.0, 18558.0, 18562.0, 18564.0, 18564.0, 18564.0, 18594.0, 18564.0, 18570.0, 18562.0, 18558.0, 18592.0, 18562.0, 18566.0, 18562.0, 18560.0, 18562.0, 18562.0, 18562.0, 18562.0, 18562.0, 18570.0, 18562.0, 18564.0, 18562.0, 18560.0, 18566.0, 18566.0, 18568.0, 18570.0, 18560.0, 18566.0, 18560.0, 18562.0, 18564.0, 18564.0, 18568.0, 18566.0, 18564.0, 18560.0, 18566.0, 18558.0, 18562.0, 18570.0, 18566.0, 18566.0, 18568.0, 18562.0, 18566.0, 18596.0, 18562.0, 18564.0, 18566.0, 18564.0, 18566.0, 18566.0, 18594.0, 18564.0, 18566.0, 18564.0, 18570.0, 18558.0, 18564.0, 18560.0, 18562.0, 18562.0, 18564.0, 18566.0, 18596.0, 18598.0, 18570.0, 18568.0, 18564.0, 18562.0, 18568.0, 18564.0, 18564.0, 18564.0, 18562.0, 18562.0, 18562.0, 18562.0, 18564.0, 18564.0, 18562.0, 18564.0, 18562.0, 18564.0, 18562.0, 18562.0, 18562.0]
    },
    "slices": {}
  }
}