{
  "AcquisitionMatrixPE": 104,
  "AcquisitionNumber": 1,
  "AcquisitionTime": "12:10:44.832500",
  "BandwidthPerPixelPhaseEncode": 17.17,
  "BaseResolution": 104,
  "BodyPartExamined": "BRAIN",
  "CoilCombinationMethod": "Sum of Squares",
  "ConsistencyInfo": "N4_VE11C_LATEST_20160120",
  "ConversionSoftware": "dcm2niix",
  "ConversionSoftwareVersion": "v1.0.20220505",
  "DerivedVendorReportedEchoSpacing": 0.000560011,
  "DeviceSerialNumber": "167006",
  "DwellTime": 2.1e-06,
  "EchoTime": 0.037,
  "EchoTrainLength": 104,
  "EffectiveEchoSpacing": 0.000560011,
  "FlipAngle": 52,
  "HeudiconvVersion": "0.5.3.post811+g6206e14",
  "ImageComments": "Unaliased MB4/PE3/LB",
  "ImageOrientationPatientDICOM": [0.994527, 0.100228, 0.0294971, -0.0861354, 0.946352, -0.311446],
  "ImageOrientationText": "Tra>Cor(-17.9)>Sag(3.4)",
  "ImageType": [
    "ORIGINAL",
    "PRIMARY",
    "M",
    "MB",
    "ND",
    "MOSAIC"
],
  "ImagingFrequency": 123.26,
  "InPlanePhaseEncodingDirectionDICOM": "COL",
  "InstitutionAddress": "Chemin Queen-Mary 4565,Montreal,District,CA,H3W 1W5",
  "InstitutionName": "IUGM",
  "InstitutionalDepartmentName": "Department",
  "MRAcquisitionType": "2D",
  "MagneticFieldStrength": 3,
  "Manufacturer": "Siemens",
  "ManufacturersModelName": "Prisma_fit",
  "MatrixCoilMode": "SENSE",
  "Modality": "MR",
  "MultibandAccelerationFactor": 4,
  "PartialFourier": 1,
  "PatientPosition": "HFS",
  "PercentPhaseFOV": 100,
  "PercentSampling": 100,
  "PhaseEncodingDirection": "j",
  "PhaseEncodingSteps": 104,
  "PhaseResolution": 1,
  "PixelBandwidth": 2290,
  "ProcedureStepDescription": "games^mario3",
  "ProtocolName": "func_task-mario3_run-05",
  "PulseSequenceDetails": "%CustomerSeq%\\cmrr_mbep2d_bold",
  "ReceiveCoilActiveElements": "HC1-7;NC1,2",
  "ReceiveCoilName": "HeadNeck_64",
  "ReconMatrixPE": 104,
  "RepetitionTime": 1.49,
  "SAR": 0.0668929,
  "ScanOptions": "FS",
  "ScanningSequence": "EP",
  "SequenceName": "epfid2d1_104",
  "SequenceVariant": "SK\\SS",
  "SeriesDescription": "func_task-mario3_run-05",
  "SeriesNumber": 22,
  "ShimSetting": [622, -7195, -8782, 671, 107, 20, -26, 20],
  "SliceThickness": 2,
  "SliceTiming": [0, 0.7825, 0.0975, 0.88, 0.195, 0.98, 0.2925, 1.0775, 0.39, 1.175, 0.49, 1.2725, 0.5875, 1.37, 0.685, 0, 0.7825, 0.0975, 0.88, 0.195, 0.98, 0.2925, 1.0775, 0.39, 1.175, 0.49, 1.2725, 0.5875, 1.37, 0.685, 0, 0.7825, 0.0975, 0.88, 0.195, 0.98, 0.2925, 1.0775, 0.39, 1.175, 0.49, 1.2725, 0.5875, 1.37, 0.685, 0, 0.7825, 0.0975, 0.88, 0.195, 0.98, 0.2925, 1.0775, 0.39, 1.175, 0.49, 1.2725, 0.5875, 1.37, 0.685],
  "SoftwareVersions": "syngo MR E11",
  "SpacingBetweenSlices": 2,
  "StationName": "MRC35049",
  "TaskName": "mario3",
  "TotalReadoutTime": 0.0576811,
  "TxRefAmp": 291.322,
  "WipMemBlock": "aad0d614-1c70-4202-ab22-48b604550c51||Sequence: R017 ve11c/master r/75a17815+; Jun 28 2022 16:32:11 by eja",
  "dcmmeta_affine": [
    [-1.9890543222427368, -0.1722707599401474, 0.1182602196931839, 110.77277374267578],
    [-0.200455442070961, 1.8927042484283447, -0.6144006252288818, -52.15912628173828],
    [0.05899418517947197, 0.6228910684585571, 1.8996121883392334, -52.513362884521484],
    [0.0, 0.0, 0.0, 1.0]
],
  "dcmmeta_reorient_transform": [
    [0.0, -1.0, 0.0, 103.0],
    [1.0, 0.0, 0.0, 0.0],
    [0.0, 0.0, 1.0, 0.0],
    [0.0, 0.0, 0.0, 1.0]
],
  "dcmmeta_shape": [104, 104, 60, 371],
  "dcmmeta_slice_dim": 2,
  "dcmmeta_version": 0.6,
  "global": {
    "const": {
      "AcquisitionMatrix": [104, 0, 0, 104],
      "AngioFlag": "N",
      "BitsAllocated": 16,
      "BitsStored": 16,
      "BodyPartExamined": "BRAIN",
      "Columns": 832,
      "EchoNumbers": 1,
      "EchoTime": 37.0,
      "EchoTrainLength": 104,
      "FlipAngle": 52.0,
      "HighBit": 15,
      "ImageOrientationPatient": [0.99452718727261, 0.10022771750882, 0.02949709169753, -0.0861353799, 0.94635213869673, -0.3114455424526],
      "ImagePositionPatient": [-754.33812475284, -904.69955068406, 216.90289027933],
      "ImageType": [
        "ORIGINAL",
        "PRIMARY",
        "M",
        "MB",
        "ND",
        "MOSAIC"
],
      "ImagedNucleus": "1H",
      "ImagingFrequency": 123.260229,
      "InPlanePhaseEncodingDirection": "COL",
      "MRAcquisitionType": "2D",
      "MagneticFieldStrength": 3.0,
      "Manufacturer": "SIEMENS",
      "ManufacturerModelName": "Prisma_fit",
      "Modality": "MR",
      "NumberOfAverages": 1.0,
      "NumberOfPhaseEncodingSteps": 104,
      "PercentPhaseFieldOfView": 100.0,
      "PercentSampling": 100.0,
      "PerformedProcedureStepStartTime": "111840.497000",
      "PhotometricInterpretation": "MONOCHROME2",
      "PixelBandwidth": 2290.0,
      "PixelRepresentation": 0,
      "PixelSpacing": [2.0, 2.0],
      "ProtocolName": "func_task-mario3_run-05",
      "RepetitionTime": 1490.0,
      "Rows": 832,
      "SAR": 0.06689285688671,
      "SamplesPerPixel": 1,
      "ScanOptions": "FS",
      "ScanningSequence": "EP",
      "SequenceName": "epfid2d1_104",
      "SequenceVariant": [
        "SK",
        "SS"
],
      "SeriesDescription": "func_task-mario3_run-05",
      "SeriesNumber": 22,
      "SeriesTime": "121205.267000",
      "SliceLocation": -27.304205771601,
      "SliceThickness": 2.0,
      "SmallestImagePixelValue": 0,
      "SoftwareVersions": "syngo MR E11",
      "SpacingBetweenSlices": 1.999999961631,
      "SpecificCharacterSet": "ISO_IR 100",
      "StudyID": "2",
      "StudyTime": "111840.440000",
      "TransmitCoilName": "Body",
      "VariableFlipAngleFlag": "N",
      "WindowCenterWidthExplanation": "Algo1",
      "dBdt": 0.0},
    "slices": {}
  },
  "time": {
    "samples": {
      "AcquisitionNumber": [1, 2, 3, 4, 5, 6, 7, 8, 9, 10, 11, 12, 13, 14, 15, 16, 17, 18, 19, 20, 21, 22, 23, 24, 25, 26, 27, 28, 29, 30, 31, 32, 33, 34, 35, 36, 37, 38, 39, 40, 41, 42, 43, 44, 45, 46, 47, 48, 49, 50, 51, 52, 53, 54, 55, 56, 57, 58, 59, 60, 61, 62, 63, 64, 65, 66, 67, 68, 69, 70, 71, 72, 73, 74, 75, 76, 77, 78, 79, 80, 81, 82, 83, 84, 85, 86, 87, 88, 89, 90, 91, 92, 93, 94, 95, 96, 97, 98, 99, 100, 101, 102, 103, 104, 105, 106, 107, 108, 109, 110, 111, 112, 113, 114, 115, 116, 117, 118, 119, 120, 121, 122, 123, 124, 125, 126, 127, 128, 129, 130, 131, 132, 133, 134, 135, 136, 137, 138, 139, 140, 141, 142, 143, 144, 145, 146, 147, 148, 149, 150, 151, 152, 153, 154, 155, 156, 157, 158, 159, 160, 161, 162, 163, 164, 165, 166, 167, 168, 169, 170, 171, 172, 173, 174, 175, 176, 177, 178, 179, 180, 181, 182, 183, 184, 185, 186, 187, 188, 189, 190, 191, 192, 193, 194, 195, 196, 197, 198, 199, 200, 201, 202, 203, 204, 205, 206, 207, 208, 209, 210, 211, 212, 213, 214, 215, 216, 217, 218, 219, 220, 221, 222, 223, 224, 225, 226, 227, 228, 229, 230, 231, 232, 233, 234, 235, 236, 237, 238, 239, 240, 241, 242, 243, 244, 245, 246, 247, 248, 249, 250, 251, 252, 253, 254, 255, 256, 257, 258, 259, 260, 261, 262, 263, 264, 265, 266, 267, 268, 269, 270, 271, 272, 273, 274, 275, 276, 277, 278, 279, 280, 281, 282, 283, 284, 285, 286, 287, 288, 289, 290, 291, 292, 293, 294, 295, 296, 297, 298, 299, 300, 301, 302, 303, 304, 305, 306, 307, 308, 309, 310, 311, 312, 313, 314, 315, 316, 317, 318, 319, 320, 321, 322, 323, 324, 325, 326, 327, 328, 329, 330, 331, 332, 333, 334, 335, 336, 337, 338, 339, 340, 341, 342, 343, 344, 345, 346, 347, 348, 349, 350, 351, 352, 353, 354, 355, 356, 357, 358, 359, 360, 361, 362, 363, 364, 365, 366, 367, 368, 369, 370, 371],
      "AcquisitionTime": ["121044.832500", "121046.322500", "121047.812500", "121049.302500", "121050.792500", "121052.282500", "121053.772500", "121055.262500", "121056.752500", "121058.242500", "121059.732500", "121101.222500", "121102.712500", "121104.202500", "121105.692500", "121107.182500", "121108.672500", "121110.162500", "121111.652500", "121113.142500", "121114.632500", "121116.122500", "121117.612500", "121119.102500", "121120.592500", "121122.082500", "121123.572500", "121125.062500", "121126.552500", "121128.042500", "121129.532500", "121131.022500", "121132.512500", "121134.002500", "121135.492500", "121136.982500", "121138.472500", "121139.962500", "121141.452500", "121142.942500", "121144.432500", "121145.922500", "121147.412500", "121148.902500", "121150.392500", "121151.882500", "121153.372500", "121154.862500", "121156.352500", "121157.842500", "121159.332500", "121200.822500", "121202.312500", "121203.802500", "121205.292500", "121206.782500", "121208.272500", "121209.762500", "121211.252500", "121212.742500", "121214.232500", "121215.722500", "121217.212500", "121218.702500", "121220.192500", "121221.682500", "121223.172500", "121224.662500", "121226.152500", "121227.642500", "121229.132500", "121230.622500", "121232.112500", "121233.602500", "121235.092500", "121236.582500", "121238.072500", "121239.562500", "121241.052500", "121242.542500", "121244.032500", "121245.522500", "121247.012500", "121248.502500", "121249.992500", "121251.482500", "121252.972500", "121254.462500", "121255.952500", "121257.442500", "121258.932500", "121300.422500", "121301.912500", "121303.402500", "121304.892500", "121306.382500", "121307.872500", "121309.362500", "121310.852500", "121312.342500", "121313.832500", "121315.322500", "121316.812500", "121318.302500", "121319.792500", "121321.282500", "121322.772500", "121324.262500", "121325.752500", "121327.242500", "121328.732500", "121330.222500", "121331.712500", "121333.202500", "121334.692500", "121336.182500", "121337.672500", "121339.162500", "121340.652500", "121342.142500", "121343.632500", "121345.122500", "121346.612500", "121348.102500", "121349.592500", "121351.082500", "121352.572500", "121354.062500", "121355.552500", "121357.042500", "121358.532500", "121400.022500", "121401.512500", "121403.002500", "121404.492500", "121405.982500", "121407.472500", "121408.962500", "121410.452500", "121411.942500", "121413.432500", "121414.922500", "121416.412500", "121417.902500", "121419.392500", "121420.882500", "121422.372500", "121423.862500", "121425.352500", "121426.842500", "121428.332500", "121429.822500", "121431.312500", "121432.802500", "121434.292500", "121435.782500", "121437.272500", "121438.762500", "121440.252500", "121441.742500", "121443.232500", "121444.722500", "121446.212500", "121447.702500", "121449.192500", "121450.682500", "121452.172500", "121453.662500", "121455.152500", "121456.642500", "121458.132500", "121459.622500", "121501.112500", "121502.602500", "121504.092500", "121505.582500", "121507.072500", "121508.562500", "121510.052500", "121511.542500", "121513.032500", "121514.522500", "121516.012500", "121517.502500", "121518.992500", "121520.482500", "121521.972500", "121523.462500", "121524.952500", "121526.442500", "121527.932500", "121529.422500", "121530.912500", "121532.402500", "121533.892500", "121535.382500", "121536.872500", "121538.362500", "121539.852500", "121541.342500", "121542.832500", "121544.322500", "121545.812500", "121547.302500", "121548.792500", "121550.282500", "121551.772500", "121553.262500", "121554.752500", "121556.242500", "121557.732500", "121559.222500", "121600.712500", "121602.202500", "121603.692500", "121605.182500", "121606.672500", "121608.162500", "121609.652500", "121611.142500", "121612.632500", "121614.122500", "121615.612500", "121617.102500", "121618.592500", "121620.082500", "121621.572500", "121623.062500", "121624.552500", "121626.042500", "121627.532500", "121629.022500", "121630.512500", "121632.002500", "121633.492500", "121634.982500", "121636.472500", "121637.962500", "121639.452500", "121640.942500", "121642.432500", "121643.922500", "121645.412500", "121646.902500", "121648.392500", "121649.882500", "121651.372500", "121652.862500", "121654.352500", "121655.842500", "121657.332500", "121658.822500", "121700.312500", "121701.802500", "121703.292500", "121704.782500", "121706.272500", "121707.762500", "121709.252500", "121710.742500", "121712.232500", "121713.722500", "121715.212500", "121716.702500", "121718.192500", "121719.682500", "121721.172500", "121722.662500", "121724.152500", "121725.642500", "121727.132500", "121728.622500", "121730.112500", "121731.602500", "121733.092500", "121734.582500", "121736.072500", "121737.562500", "121739.052500", "121740.542500", "121742.032500", "121743.522500", "121745.012500", "121746.502500", "121747.992500", "121749.482500", "121750.972500", "121752.462500", "121753.952500", "121755.442500", "121756.932500", "121758.422500", "121759.912500", "121801.402500", "121802.892500", "121804.382500", "121805.872500", "121807.362500", "121808.852500", "121810.342500", "121811.832500", "121813.322500", "121814.812500", "121816.302500", "121817.792500", "121819.282500", "121820.772500", "121822.262500", "121823.752500", "121825.242500", "121826.732500", "121828.222500", "121829.712500", "121831.202500", "121832.692500", "121834.182500", "121835.672500", "121837.162500", "121838.652500", "121840.142500", "121841.632500", "121843.122500", "121844.612500", "121846.102500", "121847.592500", "121849.082500", "121850.572500", "121852.062500", "121853.552500", "121855.042500", "121856.532500", "121858.022500", "121859.512500", "121901.002500", "121902.492500", "121903.982500", "121905.472500", "121906.962500", "121908.452500", "121909.942500", "121911.432500", "121912.922500", "121914.412500", "121915.902500", "121917.392500", "121918.882500", "121920.372500", "121921.862500", "121923.352500", "121924.842500", "121926.332500", "121927.822500", "121929.312500", "121930.802500", "121932.292500", "121933.782500", "121935.272500", "121936.762500", "121938.252500", "121939.742500", "121941.232500", "121942.722500", "121944.212500", "121945.702500", "121947.192500", "121948.682500", "121950.172500", "121951.662500", "121953.152500", "121954.642500", "121956.132500"],
      "ContentTime": ["121205.271000", "121205.274000", "121205.278000", "121205.281000", "121205.284000", "121205.288000", "121205.291000", "121205.295000", "121205.298000", "121205.301000", "121205.305000", "121205.308000", "121205.311000", "121205.315000", "121205.318000", "121205.322000", "121205.325000", "121205.333000", "121205.336000", "121205.340000", "121205.344000", "121205.347000", "121205.351000", "121205.354000", "121205.357000", "121205.361000", "121205.364000", "121205.367000", "121205.371000", "121205.374000", "121205.378000", "121225.226000", "121225.230000", "121225.233000", "121225.237000", "121225.240000", "121225.244000", "121225.252000", "121225.255000", "121225.259000", "121225.262000", "121225.265000", "121225.269000", "121225.272000", "121225.276000", "121225.279000", "121225.282000", "121225.286000", "121225.289000", "121225.292000", "121225.296000", "121245.226000", "121245.230000", "121245.233000", "121245.237000", "121245.245000", "121245.248000", "121245.251000", "121245.255000", "121245.258000", "121245.262000", "121245.265000", "121245.268000", "121245.272000", "121245.275000", "121245.279000", "121245.282000", "121245.291000", "121245.300000", "121245.303000", "121245.306000", "121245.310000", "121305.225000", "121305.239000", "121305.242000", "121305.246000", "121305.249000", "121305.253000", "121305.256000", "121305.259000", "121305.262000", "121305.266000", "121305.269000", "121305.273000", "121305.276000", "121305.280000", "121305.283000", "121305.286000", "121305.290000", "121305.293000", "121305.296000", "121305.300000", "121345.226000", "121345.230000", "121345.233000", "121345.237000", "121345.241000", "121345.244000", "121345.248000", "121345.251000", "121345.254000", "121345.258000", "121345.261000", "121345.264000", "121345.268000", "121345.271000", "121345.275000", "121345.278000", "121345.281000", "121345.284000", "121345.288000", "121345.291000", "121345.295000", "121345.298000", "121345.302000", "121345.305000", "121345.308000", "121345.312000", "121345.315000", "121345.319000", "121425.226000", "121425.230000", "121425.234000", "121425.237000", "121425.240000", "121425.244000", "121425.247000", "121425.251000", "121425.254000", "121425.257000", "121425.261000", "121425.264000", "121425.268000", "121425.271000", "121425.274000", "121425.278000", "121425.281000", "121425.284000", "121425.288000", "121425.291000", "121425.295000", "121425.298000", "121425.301000", "121425.305000", "121425.308000", "121425.311000", "121425.315000", "121505.226000", "121505.230000", "121505.233000", "121505.237000", "121505.240000", "121505.244000", "121505.247000", "121505.250000", "121505.254000", "121505.257000", "121505.261000", "121505.264000", "121505.268000", "121505.271000", "121505.287000", "121505.291000", "121505.294000", "121505.298000", "121505.301000", "121505.304000", "121505.308000", "121505.311000", "121505.315000", "121505.318000", "121505.321000", "121505.325000", "121505.328000", "121545.225000", "121545.229000", "121545.247000", "121545.250000", "121545.254000", "121545.257000", "121545.267000", "121545.270000", "121545.274000", "121545.277000", "121545.281000", "121545.284000", "121545.287000", "121545.291000", "121545.294000", "121545.309000", "121545.312000", "121545.315000", "121545.319000", "121545.322000", "121545.326000", "121545.329000", "121545.332000", "121545.336000", "121545.339000", "121545.343000", "121545.346000", "121625.226000", "121625.230000", "121625.233000", "121625.237000", "121625.240000", "121625.244000", "121625.247000", "121625.250000", "121625.254000", "121625.257000", "121625.261000", "121625.264000", "121625.267000", "121625.271000", "121625.274000", "121625.278000", "121625.281000", "121625.284000", "121625.288000", "121625.291000", "121625.295000", "121625.298000", "121625.301000", "121625.305000", "121625.308000", "121625.312000", "121625.315000", "121705.226000", "121705.230000", "121705.234000", "121705.237000", "121705.241000", "121705.244000", "121705.247000", "121705.251000", "121705.254000", "121705.258000", "121705.261000", "121705.264000", "121705.268000", "121705.271000", "121705.275000", "121705.278000", "121705.281000", "121705.285000", "121705.288000", "121705.292000", "121705.295000", "121705.298000", "121705.302000", "121705.305000", "121705.309000", "121705.312000", "121705.315000", "121745.225000", "121745.229000", "121745.232000", "121745.236000", "121745.239000", "121745.243000", "121745.246000", "121745.250000", "121745.253000", "121745.257000", "121745.260000", "121745.264000", "121745.268000", "121745.272000", "121745.275000", "121745.279000", "121745.283000", "121745.287000", "121745.290000", "121745.294000", "121745.297000", "121745.301000", "121745.304000", "121745.307000", "121745.311000", "121745.314000", "121825.226000", "121825.230000", "121825.233000", "121825.237000", "121825.250000", "121825.253000", "121825.257000", "121825.260000", "121825.264000", "121825.267000", "121825.270000", "121825.274000", "121825.278000", "121825.281000", "121825.284000", "121825.288000", "121825.291000", "121825.295000", "121825.298000", "121825.301000", "121825.305000", "121825.308000", "121825.312000", "121825.315000", "121825.318000", "121825.322000", "121825.325000", "121905.226000", "121905.230000", "121905.234000", "121905.237000", "121905.252000", "121905.255000", "121905.259000", "121905.262000", "121905.266000", "121905.269000", "121905.272000", "121905.276000", "121905.279000", "121905.283000", "121905.286000", "121905.290000", "121905.293000", "121905.297000", "121905.300000", "121905.304000", "121905.307000", "121905.310000", "121905.314000", "121905.317000", "121905.320000", "121905.324000", "121905.327000", "121945.226000", "121945.230000", "121945.233000", "121945.237000", "121945.240000", "121945.244000", "121945.247000", "121945.250000", "121945.254000", "121945.257000", "121945.261000", "121945.264000", "121945.268000", "121945.271000", "121945.274000", "121945.278000", "121945.281000", "121945.285000", "121945.288000", "121945.291000", "121945.295000", "121945.298000", "121945.302000", "121945.305000", "121945.309000", "121945.314000", "121945.317000", "121957.930000", "121957.934000", "121957.937000", "121957.941000", "121957.944000", "121957.947000", "121957.951000", "121957.954000", "121957.957000"],
      "InstanceCreationTime": ["121205.271000", "121205.274000", "121205.278000", "121205.281000", "121205.284000", "121205.288000", "121205.291000", "121205.295000", "121205.298000", "121205.301000", "121205.305000", "121205.308000", "121205.311000", "121205.315000", "121205.318000", "121205.322000", "121205.325000", "121205.333000", "121205.336000", "121205.340000", "121205.344000", "121205.347000", "121205.351000", "121205.354000", "121205.357000", "121205.361000", "121205.364000", "121205.367000", "121205.371000", "121205.374000", "121205.378000", "121225.226000", "121225.230000", "121225.233000", "121225.237000", "121225.240000", "121225.244000", "121225.252000", "121225.255000", "121225.259000", "121225.262000", "121225.265000", "121225.269000", "121225.272000", "121225.276000", "121225.279000", "121225.282000", "121225.286000", "121225.289000", "121225.292000", "121225.296000", "121245.226000", "121245.230000", "121245.233000", "121245.237000", "121245.245000", "121245.248000", "121245.251000", "121245.255000", "121245.258000", "121245.262000", "121245.265000", "121245.268000", "121245.272000", "121245.275000", "121245.279000", "121245.282000", "121245.291000", "121245.300000", "121245.303000", "121245.306000", "121245.310000", "121305.225000", "121305.239000", "121305.242000", "121305.246000", "121305.249000", "121305.253000", "121305.256000", "121305.259000", "121305.262000", "121305.266000", "121305.269000", "121305.273000", "121305.276000", "121305.280000", "121305.283000", "121305.286000", "121305.290000", "121305.293000", "121305.296000", "121305.300000", "121345.226000", "121345.230000", "121345.233000", "121345.237000", "121345.241000", "121345.244000", "121345.248000", "121345.251000", "121345.254000", "121345.258000", "121345.261000", "121345.264000", "121345.268000", "121345.271000", "121345.275000", "121345.278000", "121345.281000", "121345.284000", "121345.288000", "121345.291000", "121345.295000", "121345.298000", "121345.302000", "121345.305000", "121345.308000", "121345.312000", "121345.315000", "121345.319000", "121425.226000", "121425.230000", "121425.234000", "121425.237000", "121425.240000", "121425.244000", "121425.247000", "121425.251000", "121425.254000", "121425.257000", "121425.261000", "121425.264000", "121425.268000", "121425.271000", "121425.274000", "121425.278000", "121425.281000", "121425.284000", "121425.288000", "121425.291000", "121425.295000", "121425.298000", "121425.301000", "121425.305000", "121425.308000", "121425.311000", "121425.315000", "121505.226000", "121505.230000", "121505.233000", "121505.237000", "121505.240000", "121505.244000", "121505.247000", "121505.250000", "121505.254000", "121505.257000", "121505.261000", "121505.264000", "121505.268000", "121505.271000", "121505.287000", "121505.291000", "121505.294000", "121505.298000", "121505.301000", "121505.304000", "121505.308000", "121505.311000", "121505.315000", "121505.318000", "121505.321000", "121505.325000", "121505.328000", "121545.225000", "121545.229000", "121545.247000", "121545.250000", "121545.254000", "121545.257000", "121545.267000", "121545.270000", "121545.274000", "121545.277000", "121545.281000", "121545.284000", "121545.287000", "121545.291000", "121545.294000", "121545.309000", "121545.312000", "121545.315000", "121545.319000", "121545.322000", "121545.326000", "121545.329000", "121545.332000", "121545.336000", "121545.339000", "121545.343000", "121545.346000", "121625.226000", "121625.230000", "121625.233000", "121625.237000", "121625.240000", "121625.244000", "121625.247000", "121625.250000", "121625.254000", "121625.257000", "121625.261000", "121625.264000", "121625.267000", "121625.271000", "121625.274000", "121625.278000", "121625.281000", "121625.284000", "121625.288000", "121625.291000", "121625.295000", "121625.298000", "121625.301000", "121625.305000", "121625.308000", "121625.312000", "121625.315000", "121705.226000", "121705.230000", "121705.234000", "121705.237000", "121705.241000", "121705.244000", "121705.247000", "121705.251000", "121705.254000", "121705.258000", "121705.261000", "121705.264000", "121705.268000", "121705.271000", "121705.275000", "121705.278000", "121705.281000", "121705.285000", "121705.288000", "121705.292000", "121705.295000", "121705.298000", "121705.302000", "121705.305000", "121705.309000", "121705.312000", "121705.315000", "121745.225000", "121745.229000", "121745.232000", "121745.236000", "121745.239000", "121745.243000", "121745.246000", "121745.250000", "121745.253000", "121745.257000", "121745.260000", "121745.264000", "121745.268000", "121745.272000", "121745.275000", "121745.279000", "121745.283000", "121745.287000", "121745.290000", "121745.294000", "121745.297000", "121745.301000", "121745.304000", "121745.307000", "121745.311000", "121745.314000", "121825.226000", "121825.230000", "121825.233000", "121825.237000", "121825.250000", "121825.253000", "121825.257000", "121825.260000", "121825.264000", "121825.267000", "121825.270000", "121825.274000", "121825.278000", "121825.281000", "121825.284000", "121825.288000", "121825.291000", "121825.295000", "121825.298000", "121825.301000", "121825.305000", "121825.308000", "121825.312000", "121825.315000", "121825.318000", "121825.322000", "121825.325000", "121905.226000", "121905.230000", "121905.234000", "121905.237000", "121905.252000", "121905.255000", "121905.259000", "121905.262000", "121905.266000", "121905.269000", "121905.272000", "121905.276000", "121905.279000", "121905.283000", "121905.286000", "121905.290000", "121905.293000", "121905.297000", "121905.300000", "121905.304000", "121905.307000", "121905.310000", "121905.314000", "121905.317000", "121905.320000", "121905.324000", "121905.327000", "121945.226000", "121945.230000", "121945.233000", "121945.237000", "121945.240000", "121945.244000", "121945.247000", "121945.250000", "121945.254000", "121945.257000", "121945.261000", "121945.264000", "121945.268000", "121945.271000", "121945.274000", "121945.278000", "121945.281000", "121945.285000", "121945.288000", "121945.291000", "121945.295000", "121945.298000", "121945.302000", "121945.305000", "121945.309000", "121945.314000", "121945.317000", "121957.930000", "121957.934000", "121957.937000", "121957.941000", "121957.944000", "121957.947000", "121957.951000", "121957.954000", "121957.957000"],
      "InstanceNumber": [1, 2, 3, 4, 5, 6, 7, 8, 9, 10, 11, 12, 13, 14, 15, 16, 17, 18, 19, 20, 21, 22, 23, 24, 25, 26, 27, 28, 29, 30, 31, 32, 33, 34, 35, 36, 37, 38, 39, 40, 41, 42, 43, 44, 45, 46, 47, 48, 49, 50, 51, 52, 53, 54, 55, 56, 57, 58, 59, 60, 61, 62, 63, 64, 65, 66, 67, 68, 69, 70, 71, 72, 73, 74, 75, 76, 77, 78, 79, 80, 81, 82, 83, 84, 85, 86, 87, 88, 89, 90, 91, 92, 93, 94, 95, 96, 97, 98, 99, 100, 101, 102, 103, 104, 105, 106, 107, 108, 109, 110, 111, 112, 113, 114, 115, 116, 117, 118, 119, 120, 121, 122, 123, 124, 125, 126, 127, 128, 129, 130, 131, 132, 133, 134, 135, 136, 137, 138, 139, 140, 141, 142, 143, 144, 145, 146, 147, 148, 149, 150, 151, 152, 153, 154, 155, 156, 157, 158, 159, 160, 161, 162, 163, 164, 165, 166, 167, 168, 169, 170, 171, 172, 173, 174, 175, 176, 177, 178, 179, 180, 181, 182, 183, 184, 185, 186, 187, 188, 189, 190, 191, 192, 193, 194, 195, 196, 197, 198, 199, 200, 201, 202, 203, 204, 205, 206, 207, 208, 209, 210, 211, 212, 213, 214, 215, 216, 217, 218, 219, 220, 221, 222, 223, 224, 225, 226, 227, 228, 229, 230, 231, 232, 233, 234, 235, 236, 237, 238, 239, 240, 241, 242, 243, 244, 245, 246, 247, 248, 249, 250, 251, 252, 253, 254, 255, 256, 257, 258, 259, 260, 261, 262, 263, 264, 265, 266, 267, 268, 269, 270, 271, 272, 273, 274, 275, 276, 277, 278, 279, 280, 281, 282, 283, 284, 285, 286, 287, 288, 289, 290, 291, 292, 293, 294, 295, 296, 297, 298, 299, 300, 301, 302, 303, 304, 305, 306, 307, 308, 309, 310, 311, 312, 313, 314, 315, 316, 317, 318, 319, 320, 321, 322, 323, 324, 325, 326, 327, 328, 329, 330, 331, 332, 333, 334, 335, 336, 337, 338, 339, 340, 341, 342, 343, 344, 345, 346, 347, 348, 349, 350, 351, 352, 353, 354, 355, 356, 357, 358, 359, 360, 361, 362, 363, 364, 365, 366, 367, 368, 369, 370, 371],
