{
  "AcquisitionMatrixPE": 104,
  "AcquisitionNumber": 1,
  "AcquisitionTime": "11:48:30.382500",
  "BandwidthPerPixelPhaseEncode": 17.17,
  "BaseResolution": 104,
  "BodyPartExamined": "BRAIN",
  "CoilCombinationMethod": "Sum of Squares",
  "ConsistencyInfo": "N4_VE11C_LATEST_20160120",
  "ConversionSoftware": "dcm2niix",
  "ConversionSoftwareVersion": "v1.0.20220505",
  "DerivedVendorReportedEchoSpacing": 0.000560011,
  "DeviceSerialNumber": "167006",
  "DwellTime": 2.1e-06,
  "EchoTime": 0.037,
  "EchoTime1": 0.037,
  "EchoTime2": 0.001,
  "EchoTrainLength": 104,
  "EffectiveEchoSpacing": 0.000560011,
  "FlipAngle": 52,
  "HeudiconvVersion": "0.5.3.post811+g6206e14",
  "ImageComments": "Unaliased MB4/PE3/LB",
  "ImageOrientationPatientDICOM": [0.994527, 0.100228, 0.0294971, -0.0861354, 0.946352, -0.311446],
  "ImageOrientationText": "Tra>Cor(-17.9)>Sag(3.4)",
  "ImageType": [
    "ORIGINAL",
    "PRIMARY",
    "P",
    "MB",
    "ND",
    "MOSAIC",
    "PHASE"
],
  "ImagingFrequency": 123.26,
  "InPlanePhaseEncodingDirectionDICOM": "COL",
  "InstitutionAddress": "Chemin Queen-Mary 4565,Montreal,District,CA,H3W 1W5",
  "InstitutionName": "IUGM",
  "InstitutionalDepartmentName": "Department",
  "MRAcquisitionType": "2D",
  "MagneticFieldStrength": 3,
  "Manufacturer": "Siemens",
  "ManufacturersModelName": "Prisma_fit",
  "MatrixCoilMode": "SENSE",
  "Modality": "MR",
  "MultibandAccelerationFactor": 4,
  "PartialFourier": 1,
  "PatientPosition": "HFS",
  "PercentPhaseFOV": 100,
  "PercentSampling": 100,
  "PhaseEncodingDirection": "j",
  "PhaseEncodingSteps": 104,
  "PhaseResolution": 1,
  "PixelBandwidth": 2290,
  "ProcedureStepDescription": "games^mario3",
  "ProtocolName": "func_task-mario3_run-03",
  "PulseSequenceDetails": "%CustomerSeq%\\cmrr_mbep2d_bold",
  "ReceiveCoilActiveElements": "HC1-7;NC1,2",
  "ReceiveCoilName": "HeadNeck_64",
  "ReconMatrixPE": 104,
  "RepetitionTime": 1.49,
  "SAR": 0.0668929,
  "ScanOptions": "FS",
  "ScanningSequence": "EP",
  "SequenceName": "epfid2d1_104",
  "SequenceVariant": "SK\\SS",
  "SeriesDescription": "func_task-mario3_run-03",
  "SeriesNumber": 17,
  "ShimSetting": [622, -7195, -8782, 671, 107, 20, -26, 20],
  "SliceThickness": 2,
  "SliceTiming": [0, 0.7825, 0.0975, 0.88, 0.195, 0.98, 0.2925, 1.0775, 0.39, 1.175, 0.49, 1.2725, 0.5875, 1.37, 0.685, 0, 0.7825, 0.0975, 0.88, 0.195, 0.98, 0.2925, 1.0775, 0.39, 1.175, 0.49, 1.2725, 0.5875, 1.37, 0.685, 0, 0.7825, 0.0975, 0.88, 0.195, 0.98, 0.2925, 1.0775, 0.39, 1.175, 0.49, 1.2725, 0.5875, 1.37, 0.685, 0, 0.7825, 0.0975, 0.88, 0.195, 0.98, 0.2925, 1.0775, 0.39, 1.175, 0.49, 1.2725, 0.5875, 1.37, 0.685],
  "SoftwareVersions": "syngo MR E11",
  "SpacingBetweenSlices": 2,
  "StationName": "MRC35049",
  "TaskName": "mario3",
  "TotalReadoutTime": 0.0576811,
  "TxRefAmp": 291.322,
  "WipMemBlock": "da9364eb-8bfc-4f5d-9e16-a5daa9259400||Sequence: R017 ve11c/master r/75a17815+; Jun 28 2022 16:32:11 by eja",
  "dcmmeta_affine": [
    [-1.9890543222427368, -0.1722707599401474, 0.1182602196931839, 110.77277374267578],
    [-0.200455442070961, 1.8927042484283447, -0.6144006252288818, -52.15912628173828],
    [0.05899418517947197, 0.6228910684585571, 1.8996121883392334, -52.513362884521484],
    [0.0, 0.0, 0.0, 1.0]
],
  "dcmmeta_reorient_transform": [
    [0.0, -1.0, 0.0, 103.0],
    [1.0, 0.0, 0.0, 0.0],
    [0.0, 0.0, 1.0, 0.0],
    [0.0, 0.0, 0.0, 1.0]
],
  "dcmmeta_shape": [104, 104, 60, 359],
  "dcmmeta_slice_dim": 2,
  "dcmmeta_version": 0.6,
  "global": {
    "const": {
      "AcquisitionMatrix": [104, 0, 0, 104],
      "AngioFlag": "N",
      "BitsAllocated": 16,
      "BitsStored": 16,
      "BodyPartExamined": "BRAIN",
      "Columns": 832,
      "EchoNumbers": 1,
      "EchoTime": 37.0,
      "EchoTrainLength": 104,
      "FlipAngle": 52.0,
      "HighBit": 15,
      "ImageOrientationPatient": [0.99452718727261, 0.10022771750882, 0.02949709169753, -0.0861353799, 0.94635213869673, -0.3114455424526],
      "ImagePositionPatient": [-754.33812475284, -904.69955068406, 216.90289027933],
      "ImageType": [
        "ORIGINAL",
        "PRIMARY",
        "P",
        "MB",
        "ND",
        "MOSAIC"
],
      "ImagedNucleus": "1H",
      "ImagingFrequency": 123.260225,
      "InPlanePhaseEncodingDirection": "COL",
      "LargestImagePixelValue": 4095,
      "MRAcquisitionType": "2D",
      "MagneticFieldStrength": 3.0,
      "Manufacturer": "SIEMENS",
      "ManufacturerModelName": "Prisma_fit",
      "Modality": "MR",
      "NumberOfAverages": 1.0,
      "NumberOfPhaseEncodingSteps": 104,
      "PercentPhaseFieldOfView": 100.0,
      "PercentSampling": 100.0,
      "PerformedProcedureStepStartTime": "111840.497000",
      "PhotometricInterpretation": "MONOCHROME2",
      "PixelBandwidth": 2290.0,
      "PixelRepresentation": 0,
      "PixelSpacing": [2.0, 2.0],
      "ProtocolName": "func_task-mario3_run-03",
      "RepetitionTime": 1490.0,
      "RescaleIntercept": -4096.0,
      "RescaleSlope": 2.0,
      "RescaleType": "US",
      "Rows": 832,
      "SAR": 0.06689285688671,
      "SamplesPerPixel": 1,
      "ScanOptions": "FS",
      "ScanningSequence": "EP",
      "SequenceName": "epfid2d1_104",
      "SequenceVariant": [
        "SK",
        "SS"
],
      "SeriesDescription": "func_task-mario3_run-03",
      "SeriesNumber": 17,
      "SeriesTime": "114938.344000",
      "SliceLocation": -27.304205771601,
      "SliceThickness": 2.0,
      "SmallestImagePixelValue": 0,
      "SoftwareVersions": "syngo MR E11",
      "SpacingBetweenSlices": 1.999999961631,
      "SpecificCharacterSet": "ISO_IR 100",
      "StudyID": "2",
      "StudyTime": "111840.440000",
      "TransmitCoilName": "Body",
      "VariableFlipAngleFlag": "N",
      "WindowCenterWidthExplanation": "Algo1",
      "dBdt": 0.0},
    "slices": {}
  },
  "time": {
    "samples": {
      "AcquisitionNumber": [1, 2, 3, 4, 5, 6, 7, 8, 9, 10, 11, 12, 13, 14, 15, 16, 17, 18, 19, 20, 21, 22, 23, 24, 25, 26, 27, 28, 29, 30, 31, 32, 33, 34, 35, 36, 37, 38, 39, 40, 41, 42, 43, 44, 45, 46, 47, 48, 49, 50, 51, 52, 53, 54, 55, 56, 57, 58, 59, 60, 61, 62, 63, 64, 65, 66, 67, 68, 69, 70, 71, 72, 73, 74, 75, 76, 77, 78, 79, 80, 81, 82, 83, 84, 85, 86, 87, 88, 89, 90, 91, 92, 93, 94, 95, 96, 97, 98, 99, 100, 101, 102, 103, 104, 105, 106, 107, 108, 109, 110, 111, 112, 113, 114, 115, 116, 117, 118, 119, 120, 121, 122, 123, 124, 125, 126, 127, 128, 129, 130, 131, 132, 133, 134, 135, 136, 137, 138, 139, 140, 141, 142, 143, 144, 145, 146, 147, 148, 149, 150, 151, 152, 153, 154, 155, 156, 157, 158, 159, 160, 161, 162, 163, 164, 165, 166, 167, 168, 169, 170, 171, 172, 173, 174, 175, 176, 177, 178, 179, 180, 181, 182, 183, 184, 185, 186, 187, 188, 189, 190, 191, 192, 193, 194, 195, 196, 197, 198, 199, 200, 201, 202, 203, 204, 205, 206, 207, 208, 209, 210, 211, 212, 213, 214, 215, 216, 217, 218, 219, 220, 221, 222, 223, 224, 225, 226, 227, 228, 229, 230, 231, 232, 233, 234, 235, 236, 237, 238, 239, 240, 241, 242, 243, 244, 245, 246, 247, 248, 249, 250, 251, 252, 253, 254, 255, 256, 257, 258, 259, 260, 261, 262, 263, 264, 265, 266, 267, 268, 269, 270, 271, 272, 273, 274, 275, 276, 277, 278, 279, 280, 281, 282, 283, 284, 285, 286, 287, 288, 289, 290, 291, 292, 293, 294, 295, 296, 297, 298, 299, 300, 301, 302, 303, 304, 305, 306, 307, 308, 309, 310, 311, 312, 313, 314, 315, 316, 317, 318, 319, 320, 321, 322, 323, 324, 325, 326, 327, 328, 329, 330, 331, 332, 333, 334, 335, 336, 337, 338, 339, 340, 341, 342, 343, 344, 345, 346, 347, 348, 349, 350, 351, 352, 353, 354, 355, 356, 357, 358, 359],
      "AcquisitionTime": ["114830.382500", "114831.872500", "114833.362500", "114834.852500", "114836.342500", "114837.832500", "114839.322500", "114840.812500", "114842.302500", "114843.792500", "114845.282500", "114846.772500", "114848.262500", "114849.752500", "114851.242500", "114852.732500", "114854.222500", "114855.712500", "114857.202500", "114858.692500", "114900.182500", "114901.672500", "114903.162500", "114904.652500", "114906.142500", "114907.632500", "114909.122500", "114910.612500", "114912.102500", "114913.592500", "114915.082500", "114916.572500", "114918.062500", "114919.552500", "114921.042500", "114922.532500", "114924.022500", "114925.512500", "114927.002500", "114928.492500", "114929.982500", "114931.472500", "114932.962500", "114934.452500", "114935.942500", "114937.432500", "114938.922500", "114940.412500", "114941.902500", "114943.392500", "114944.882500", "114946.372500", "114947.862500", "114949.352500", "114950.842500", "114952.332500", "114953.822500", "114955.312500", "114956.802500", "114958.292500", "114959.782500", "115001.272500", "115002.762500", "115004.252500", "115005.742500", "115007.232500", "115008.722500", "115010.212500", "115011.702500", "115013.192500", "115014.682500", "115016.172500", "115017.662500", "115019.152500", "115020.642500", "115022.132500", "115023.622500", "115025.112500", "115026.602500", "115028.092500", "115029.582500", "115031.072500", "115032.562500", "115034.052500", "115035.542500", "115037.032500", "115038.522500", "115040.012500", "115041.502500", "115042.992500", "115044.482500", "115045.972500", "115047.462500", "115048.952500", "115050.442500", "115051.932500", "115053.422500", "115054.912500", "115056.402500", "115057.892500", "115059.382500", "115100.872500", "115102.362500", "115103.852500", "115105.342500", "115106.832500", "115108.322500", "115109.812500", "115111.302500", "115112.792500", "115114.282500", "115115.772500", "115117.262500", "115118.752500", "115120.242500", "115121.732500", "115123.222500", "115124.712500", "115126.202500", "115127.692500", "115129.182500", "115130.672500", "115132.162500", "115133.652500", "115135.142500", "115136.632500", "115138.122500", "115139.612500", "115141.102500", "115142.592500", "115144.082500", "115145.572500", "115147.062500", "115148.552500", "115150.042500", "115151.532500", "115153.022500", "115154.512500", "115156.002500", "115157.492500", "115158.982500", "115200.472500", "115201.962500", "115203.452500", "115204.942500", "115206.432500", "115207.922500", "115209.412500", "115210.902500", "115212.392500", "115213.882500", "115215.372500", "115216.862500", "115218.352500", "115219.842500", "115221.332500", "115222.822500", "115224.312500", "115225.802500", "115227.292500", "115228.782500", "115230.272500", "115231.762500", "115233.252500", "115234.742500", "115236.232500", "115237.722500", "115239.212500", "115240.702500", "115242.192500", "115243.682500", "115245.172500", "115246.662500", "115248.152500", "115249.642500", "115251.132500", "115252.622500", "115254.112500", "115255.602500", "115257.092500", "115258.582500", "115300.072500", "115301.562500", "115303.052500", "115304.542500", "115306.032500", "115307.522500", "115309.012500", "115310.502500", "115311.992500", "115313.482500", "115314.972500", "115316.462500", "115317.952500", "115319.442500", "115320.932500", "115322.422500", "115323.912500", "115325.402500", "115326.892500", "115328.382500", "115329.872500", "115331.362500", "115332.852500", "115334.342500", "115335.832500", "115337.322500", "115338.812500", "115340.302500", "115341.792500", "115343.282500", "115344.772500", "115346.262500", "115347.752500", "115349.242500", "115350.732500", "115352.222500", "115353.712500", "115355.202500", "115356.692500", "115358.182500", "115359.672500", "115401.162500", "115402.652500", "115404.142500", "115405.632500", "115407.122500", "115408.612500", "115410.102500", "115411.592500", "115413.082500", "115414.572500", "115416.062500", "115417.552500", "115419.042500", "115420.532500", "115422.022500", "115423.512500", "115425.002500", "115426.492500", "115427.982500", "115429.472500", "115430.962500", "115432.452500", "115433.942500", "115435.432500", "115436.922500", "115438.412500", "115439.902500", "115441.392500", "115442.882500", "115444.372500", "115445.862500", "115447.352500", "115448.842500", "115450.332500", "115451.822500", "115453.312500", "115454.802500", "115456.292500", "115457.782500", "115459.272500", "115500.762500", "115502.252500", "115503.742500", "115505.232500", "115506.722500", "115508.212500", "115509.702500", "115511.192500", "115512.682500", "115514.172500", "115515.662500", "115517.152500", "115518.642500", "115520.132500", "115521.622500", "115523.112500", "115524.602500", "115526.092500", "115527.582500", "115529.072500", "115530.562500", "115532.052500", "115533.542500", "115535.032500", "115536.522500", "115538.012500", "115539.502500", "115540.992500", "115542.482500", "115543.972500", "115545.462500", "115546.952500", "115548.442500", "115549.932500", "115551.422500", "115552.912500", "115554.402500", "115555.892500", "115557.382500", "115558.872500", "115600.362500", "115601.852500", "115603.342500", "115604.832500", "115606.322500", "115607.812500", "115609.302500", "115610.792500", "115612.282500", "115613.772500", "115615.262500", "115616.752500", "115618.242500", "115619.732500", "115621.222500", "115622.712500", "115624.202500", "115625.692500", "115627.182500", "115628.672500", "115630.162500", "115631.652500", "115633.142500", "115634.632500", "115636.122500", "115637.612500", "115639.102500", "115640.592500", "115642.082500", "115643.572500", "115645.062500", "115646.552500", "115648.042500", "115649.532500", "115651.022500", "115652.512500", "115654.002500", "115655.492500", "115656.982500", "115658.472500", "115659.962500", "115701.452500", "115702.942500", "115704.432500", "115705.922500", "115707.412500", "115708.902500", "115710.392500", "115711.882500", "115713.372500", "115714.862500", "115716.352500", "115717.842500", "115719.332500", "115720.822500", "115722.312500", "115723.802500"],
      "ContentTime": ["114938.346000", "114938.348000", "114938.351000", "114938.354000", "114938.356000", "114938.359000", "114938.361000", "114938.364000", "114938.366000", "114938.369000", "114938.380000", "114938.382000", "114938.385000", "114938.387000", "114938.390000", "114938.392000", "114938.395000", "114938.397000", "114958.297000", "114958.300000", "114958.302000", "114958.305000", "114958.308000", "114958.310000", "114958.313000", "114958.315000", "114958.318000", "114958.320000", "114958.323000", "114958.325000", "114958.328000", "114958.330000", "114958.333000", "114958.335000", "114958.338000", "114958.340000", "114958.343000", "114958.346000", "115018.302000", "115018.305000", "115018.307000", "115018.310000", "115018.312000", "115018.315000", "115018.317000", "115018.320000", "115018.322000", "115018.325000", "115018.327000", "115018.330000", "115018.333000", "115018.335000", "115018.338000", "115018.340000", "115018.343000", "115018.345000", "115018.348000", "115018.350000", "115038.284000", "115038.287000", "115038.289000", "115038.292000", "115038.294000", "115038.297000", "115038.299000", "115038.302000", "115038.304000", "115038.307000", "115038.310000", "115038.312000", "115038.315000", "115038.317000", "115038.320000", "115038.323000", "115038.325000", "115038.328000", "115038.330000", "115038.333000", "115058.289000", "115058.291000", "115058.294000", "115058.297000", "115058.299000", "115058.302000", "115058.304000", "115058.307000", "115058.309000", "115058.312000", "115058.314000", "115058.317000", "115058.320000", "115058.322000", "115058.325000", "115058.336000", "115058.338000", "115058.341000", "115058.343000", "115058.346000", "115138.326000", "115138.329000", "115138.331000", "115138.334000", "115138.336000", "115138.339000", "115138.342000", "115138.344000", "115138.347000", "115138.349000", "115138.352000", "115138.354000", "115138.357000", "115138.360000", "115138.362000", "115138.365000", "115138.368000", "115138.370000", "115138.373000", "115138.375000", "115138.378000", "115138.381000", "115138.384000", "115138.387000", "115138.390000", "115138.393000", "115138.396000", "115218.316000", "115218.319000", "115218.321000", "115218.324000", "115218.326000", "115218.329000", "115218.332000", "115218.334000", "115218.337000", "115218.339000", "115218.342000", "115218.344000", "115218.347000", "115218.349000", "115218.352000", "115218.355000", "115218.357000", "115218.360000", "115218.362000", "115218.365000", "115218.368000", "115218.370000", "115218.373000", "115218.375000", "115218.378000", "115218.380000", "115218.383000", "115258.307000", "115258.309000", "115258.312000", "115258.314000", "115258.317000", "115258.320000", "115258.322000", "115258.325000", "115258.327000", "115258.330000", "115258.332000", "115258.335000", "115258.337000", "115258.340000", "115258.343000", "115258.345000", "115258.348000", "115258.350000", "115258.353000", "115258.355000", "115258.358000", "115258.361000", "115258.363000", "115258.366000", "115258.368000", "115258.371000", "115258.373000", "115338.315000", "115338.318000", "115338.321000", "115338.323000", "115338.326000", "115338.328000", "115338.331000", "115338.333000", "115338.336000", "115338.339000", "115338.341000", "115338.344000", "115338.346000", "115338.349000", "115338.356000", "115338.359000", "115338.362000", "115338.364000", "115338.367000", "115338.369000", "115338.372000", "115338.374000", "115338.377000", "115338.379000", "115338.382000", "115338.384000", "115338.387000", "115418.323000", "115418.326000", "115418.328000", "115418.331000", "115418.333000", "115418.336000", "115418.338000", "115418.341000", "115418.344000", "115418.346000", "115418.349000", "115418.351000", "115418.354000", "115418.357000", "115418.359000", "115418.362000", "115418.364000", "115418.367000", "115418.369000", "115418.372000", "115418.375000", "115418.377000", "115418.380000", "115418.382000", "115418.385000", "115418.388000", "115418.390000", "115458.308000", "115458.310000", "115458.313000", "115458.315000", "115458.318000", "115458.321000", "115458.323000", "115458.326000", "115458.328000", "115458.331000", "115458.333000", "115458.336000", "115458.338000", "115458.341000", "115458.344000", "115458.346000", "115458.349000", "115458.351000", "115458.354000", "115458.356000", "115458.359000", "115458.362000", "115458.364000", "115458.367000", "115458.369000", "115458.372000", "115458.374000", "115538.310000", "115538.313000", "115538.316000", "115538.318000", "115538.321000", "115538.324000", "115538.326000", "115538.329000", "115538.331000", "115538.334000", "115538.336000", "115538.339000", "115538.342000", "115538.344000", "115538.347000", "115538.349000", "115538.352000", "115538.354000", "115538.357000", "115538.360000", "115538.362000", "115538.365000", "115538.368000", "115538.370000", "115538.373000", "115538.375000", "115618.347000", "115618.350000", "115618.353000", "115618.355000", "115618.358000", "115618.361000", "115618.364000", "115618.366000", "115618.369000", "115618.371000", "115618.374000", "115618.377000", "115618.379000", "115618.382000", "115618.384000", "115618.387000", "115618.389000", "115618.392000", "115618.395000", "115618.397000", "115618.400000", "115618.402000", "115618.405000", "115618.407000", "115618.410000", "115618.413000", "115618.415000", "115658.304000", "115658.307000", "115658.310000", "115658.312000", "115658.315000", "115658.317000", "115658.320000", "115658.323000", "115658.325000", "115658.328000", "115658.330000", "115658.333000", "115658.335000", "115658.338000", "115658.341000", "115658.343000", "115658.346000", "115658.348000", "115658.351000", "115658.354000", "115658.356000", "115658.359000", "115658.361000", "115658.364000", "115658.366000", "115658.369000", "115658.372000", "115726.558000", "115726.561000", "115726.564000", "115726.567000", "115726.570000", "115726.572000", "115726.575000", "115726.578000", "115726.580000", "115726.583000", "115726.586000", "115726.589000", "115726.591000", "115726.595000", "115726.599000", "115726.602000", "115726.605000", "115726.609000", "115726.612000"],
      "InstanceCreationTime": ["114938.346000", "114938.348000", "114938.351000", "114938.354000", "114938.356000", "114938.359000", "114938.361000", "114938.364000", "114938.366000", "114938.369000", "114938.380000", "114938.382000", "114938.385000", "114938.387000", "114938.390000", "114938.392000", "114938.395000", "114938.397000", "114958.297000", "114958.300000", "114958.302000", "114958.305000", "114958.308000", "114958.310000", "114958.313000", "114958.315000", "114958.318000", "114958.320000", "114958.323000", "114958.325000", "114958.328000", "114958.330000", "114958.333000", "114958.335000", "114958.338000", "114958.340000", "114958.343000", "114958.346000", "115018.302000", "115018.305000", "115018.307000", "115018.310000", "115018.312000", "115018.315000", "115018.317000", "115018.320000", "115018.322000", "115018.325000", "115018.327000", "115018.330000", "115018.333000", "115018.335000", "115018.338000", "115018.340000", "115018.343000", "115018.345000", "115018.348000", "115018.350000", "115038.284000", "115038.287000", "115038.289000", "115038.292000", "115038.294000", "115038.297000", "115038.299000", "115038.302000", "115038.304000", "115038.307000", "115038.310000", "115038.312000", "115038.315000", "115038.317000", "115038.320000", "115038.323000", "115038.325000", "115038.328000", "115038.330000", "115038.333000", "115058.289000", "115058.291000", "115058.294000", "115058.297000", "115058.299000", "115058.302000", "115058.304000", "115058.307000", "115058.309000", "115058.312000", "115058.314000", "115058.317000", "115058.320000", "115058.322000", "115058.325000", "115058.336000", "115058.338000", "115058.341000", "115058.343000", "115058.346000", "115138.326000", "115138.329000", "115138.331000", "115138.334000", "115138.336000", "115138.339000", "115138.342000", "115138.344000", "115138.347000", "115138.349000", "115138.352000", "115138.354000", "115138.357000", "115138.360000", "115138.362000", "115138.365000", "115138.368000", "115138.370000", "115138.373000", "115138.375000", "115138.378000", "115138.381000", "115138.384000", "115138.387000", "115138.390000", "115138.393000", "115138.396000", "115218.316000", "115218.319000", "115218.321000", "115218.324000", "115218.326000", "115218.329000", "115218.332000", "115218.334000", "115218.337000", "115218.339000", "115218.342000", "115218.344000", "115218.347000", "115218.349000", "115218.352000", "115218.355000", "115218.357000", "115218.360000", "115218.362000", "115218.365000", "115218.368000", "115218.370000", "115218.373000", "115218.375000", "115218.378000", "115218.380000", "115218.383000", "115258.307000", "115258.309000", "115258.312000", "115258.314000", "115258.317000", "115258.320000", "115258.322000", "115258.325000", "115258.327000", "115258.330000", "115258.332000", "115258.335000", "115258.337000", "115258.340000", "115258.343000", "115258.345000", "115258.348000", "115258.350000", "115258.353000", "115258.355000", "115258.358000", "115258.361000", "115258.363000", "115258.366000", "115258.368000", "115258.371000", "115258.373000", "115338.315000", "115338.318000", "115338.321000", "115338.323000", "115338.326000", "115338.328000", "115338.331000", "115338.333000", "115338.336000", "115338.339000", "115338.341000", "115338.344000", "115338.346000", "115338.349000", "115338.356000", "115338.359000", "115338.362000", "115338.364000", "115338.367000", "115338.369000", "115338.372000", "115338.374000", "115338.377000", "115338.379000", "115338.382000", "115338.384000", "115338.387000", "115418.323000", "115418.326000", "115418.328000", "115418.331000", "115418.333000", "115418.336000", "115418.338000", "115418.341000", "115418.344000", "115418.346000", "115418.349000", "115418.351000", "115418.354000", "115418.357000", "115418.359000", "115418.362000", "115418.364000", "115418.367000", "115418.369000", "115418.372000", "115418.375000", "115418.377000", "115418.380000", "115418.382000", "115418.385000", "115418.388000", "115418.390000", "115458.308000", "115458.310000", "115458.313000", "115458.315000", "115458.318000", "115458.321000", "115458.323000", "115458.326000", "115458.328000", "115458.331000", "115458.333000", "115458.336000", "115458.338000", "115458.341000", "115458.344000", "115458.346000", "115458.349000", "115458.351000", "115458.354000", "115458.356000", "115458.359000", "115458.362000", "115458.364000", "115458.367000", "115458.369000", "115458.372000", "115458.374000", "115538.310000", "115538.313000", "115538.316000", "115538.318000", "115538.321000", "115538.324000", "115538.326000", "115538.329000", "115538.331000", "115538.334000", "115538.336000", "115538.339000", "115538.342000", "115538.344000", "115538.347000", "115538.349000", "115538.352000", "115538.354000", "115538.357000", "115538.360000", "115538.362000", "115538.365000", "115538.368000", "115538.370000", "115538.373000", "115538.375000", "115618.347000", "115618.350000", "115618.353000", "115618.355000", "115618.358000", "115618.361000", "115618.364000", "115618.366000", "115618.369000", "115618.371000", "115618.374000", "115618.377000", "115618.379000", "115618.382000", "115618.384000", "115618.387000", "115618.389000", "115618.392000", "115618.395000", "115618.397000", "115618.400000", "115618.402000", "115618.405000", "115618.407000", "115618.410000", "115618.413000", "115618.415000", "115658.304000", "115658.307000", "115658.310000", "115658.312000", "115658.315000", "115658.317000", "115658.320000", "115658.323000", "115658.325000", "115658.328000", "115658.330000", "115658.333000", "115658.335000", "115658.338000", "115658.341000", "115658.343000", "115658.346000", "115658.348000", "115658.351000", "115658.354000", "115658.356000", "115658.359000", "115658.361000", "115658.364000", "115658.366000", "115658.369000", "115658.372000", "115726.558000", "115726.561000", "115726.564000", "115726.567000", "115726.570000", "115726.572000", "115726.575000", "115726.578000", "115726.580000", "115726.583000", "115726.586000", "115726.589000", "115726.591000", "115726.595000", "115726.599000", "115726.602000", "115726.605000", "115726.609000", "115726.612000"],
      "InstanceNumber": [1, 2, 3, 4, 5, 6, 7, 8, 9, 10, 11, 12, 13, 14, 15, 16, 17, 18, 19, 20, 21, 22, 23, 24, 25, 26, 27, 28, 29, 30, 31, 32, 33, 34, 35, 36, 37, 38, 39, 40, 41, 42, 43, 44, 45, 46, 47, 48, 49, 50, 51, 52, 53, 54, 55, 56, 57, 58, 59, 60, 61, 62, 63, 64, 65, 66, 67, 68, 69, 70, 71, 72, 73, 74, 75, 76, 77, 78, 79, 80, 81, 82, 83, 84, 85, 86, 87, 88, 89, 90, 91, 92, 93, 94, 95, 96, 97, 98, 99, 100, 101, 102, 103, 104, 105, 106, 107, 108, 109, 110, 111, 112, 113, 114, 115, 116, 117, 118, 119, 120, 121, 122, 123, 124, 125, 126, 127, 128, 129, 130, 131, 132, 133, 134, 135, 136, 137, 138, 139, 140, 141, 142, 143, 144, 145, 146, 147, 148, 149, 150, 151, 152, 153, 154, 155, 156, 157, 158, 159, 160, 161, 162, 163, 164, 165, 166, 167, 168, 169, 170, 171, 172, 173, 174, 175, 176, 177, 178, 179, 180, 181, 182, 183, 184, 185, 186, 187, 188, 189, 190, 191, 192, 193, 194, 195, 196, 197, 198, 199, 200, 201, 202, 203, 204, 205, 206, 207, 208, 209, 210, 211, 212, 213, 214, 215, 216, 217, 218, 219, 220, 221, 222, 223, 224, 225, 226, 227, 228, 229, 230, 231, 232, 233, 234, 235, 236, 237, 238, 239, 240, 241, 242, 243, 244, 245, 246, 247, 248, 249, 250, 251, 252, 253, 254, 255, 256, 257, 258, 259, 260, 261, 262, 263, 264, 265, 266, 267, 268, 269, 270, 271, 272, 273, 274, 275, 276, 277, 278, 279, 280, 281, 282, 283, 284, 285, 286, 287, 288, 289, 290, 291, 292, 293, 294, 295, 296, 297, 298, 299, 300, 301, 302, 303, 304, 305, 306, 307, 308, 309, 310, 311, 312, 313, 314, 315, 316, 317, 318, 319, 320, 321, 322, 323, 324, 325, 326, 327, 328, 329, 330, 331, 332, 333, 334, 335, 336, 337, 338, 339, 340, 341, 342, 343, 344, 345, 346, 347, 348, 349, 350, 351, 352, 353, 354, 355, 356, 357, 358, 359],
