{
  "AcquisitionMatrixPE": 104,
  "AcquisitionNumber": 1,
  "AcquisitionTime": "11:42:48.592500",
  "BandwidthPerPixelPhaseEncode": 17.17,
  "BaseResolution": 104,
  "BodyPartExamined": "BRAIN",
  "CoilCombinationMethod": "Sum of Squares",
  "ConsistencyInfo": "N4_VE11C_LATEST_20160120",
  "ConversionSoftware": "dcm2niix",
  "ConversionSoftwareVersion": "v1.0.20220505",
  "DerivedVendorReportedEchoSpacing": 0.000560011,
  "DeviceSerialNumber": "167006",
  "DwellTime": 2.1e-06,
  "EchoTime": 0.037,
  "EchoTime1": 0.037,
  "EchoTime2": 0.001,
  "EchoTrainLength": 104,
  "EffectiveEchoSpacing": 0.000560011,
  "FlipAngle": 52,
  "HeudiconvVersion": "0.5.3.post811+g6206e14",
  "ImageComments": "Unaliased MB4/PE3/LB",
  "ImageOrientationPatientDICOM": [0.997212, 0.0722078, 0.0188308, -0.0601187, 0.926881, -0.370509],
  "ImageOrientationText": "Tra>Cor(-21.6)>Sag(2.5)",
  "ImageType": [
    "ORIGINAL",
    "PRIMARY",
    "P",
    "MB",
    "ND",
    "MOSAIC",
    "PHASE"
],
  "ImagingFrequency": 123.26,
  "InPlanePhaseEncodingDirectionDICOM": "COL",
  "InstitutionAddress": "Chemin Queen-Mary 4565,Montreal,District,CA,H3W 1W5",
  "InstitutionName": "IUGM",
  "InstitutionalDepartmentName": "Department",
  "MRAcquisitionType": "2D",
  "MagneticFieldStrength": 3,
  "Manufacturer": "Siemens",
  "ManufacturersModelName": "Prisma_fit",
  "MatrixCoilMode": "SENSE",
  "Modality": "MR",
  "MultibandAccelerationFactor": 4,
  "PartialFourier": 1,
  "PatientPosition": "HFS",
  "PercentPhaseFOV": 100,
  "PercentSampling": 100,
  "PhaseEncodingDirection": "j",
  "PhaseEncodingSteps": 104,
  "PhaseResolution": 1,
  "PixelBandwidth": 2290,
  "ProcedureStepDescription": "games^mario3",
  "ProtocolName": "func_task-mario3_run-02",
  "PulseSequenceDetails": "%CustomerSeq%\\cmrr_mbep2d_bold",
  "ReceiveCoilActiveElements": "HC1-7;NC1,2",
  "ReceiveCoilName": "HeadNeck_64",
  "ReconMatrixPE": 104,
  "RepetitionTime": 1.49,
  "SAR": 0.048271,
  "ScanOptions": "FS",
  "ScanningSequence": "EP",
  "SequenceName": "epfid2d1_104",
  "SequenceVariant": "SK\\SS",
  "SeriesDescription": "func_task-mario3_run-02",
  "SeriesNumber": 17,
  "ShimSetting": [616, -7191, -8816, 621, 85, 13, -89, 6],
  "SliceThickness": 2,
  "SliceTiming": [0, 0.785, 0.0975, 0.8825, 0.1975, 0.98, 0.295, 1.0775, 0.3925, 1.1775, 0.49, 1.275, 0.5875, 1.3725, 0.6875, 0, 0.785, 0.0975, 0.8825, 0.1975, 0.98, 0.295, 1.0775, 0.3925, 1.1775, 0.49, 1.275, 0.5875, 1.3725, 0.6875, 0, 0.785, 0.0975, 0.8825, 0.1975, 0.98, 0.295, 1.0775, 0.3925, 1.1775, 0.49, 1.275, 0.5875, 1.3725, 0.6875, 0, 0.785, 0.0975, 0.8825, 0.1975, 0.98, 0.295, 1.0775, 0.3925, 1.1775, 0.49, 1.275, 0.5875, 1.3725, 0.6875],
  "SoftwareVersions": "syngo MR E11",
  "SpacingBetweenSlices": 2,
  "StationName": "MRC35049",
  "TaskName": "mario3",
  "TotalReadoutTime": 0.0576811,
  "TxRefAmp": 251.672,
  "WipMemBlock": "b5b03abe-f1fd-4db2-8b99-5e7097dcaca6||Sequence: R017 ve11c/master r/75a17815+; Jun 28 2022 16:32:11 by eja",
  "dcmmeta_affine": [
    [-1.9944236278533936, -0.12023738026618958, 0.08841511607170105, 110.22505187988281],
    [-0.14441557228565216, 1.8537627458572388, -0.7366868853569031, -51.403167724609375],
    [0.03766167536377907, 0.7410171627998352, 1.857276201248169, -60.37505340576172],
    [0.0, 0.0, 0.0, 1.0]
],
  "dcmmeta_reorient_transform": [
    [0.0, -1.0, 0.0, 103.0],
    [1.0, 0.0, 0.0, 0.0],
    [0.0, 0.0, 1.0, 0.0],
    [0.0, 0.0, 0.0, 1.0]
],
  "dcmmeta_shape": [104, 104, 60, 378],
  "dcmmeta_slice_dim": 2,
  "dcmmeta_version": 0.6,
  "global": {
    "const": {
      "AcquisitionMatrix": [104, 0, 0, 104],
      "AngioFlag": "N",
      "BitsAllocated": 16,
      "BitsStored": 16,
      "BodyPartExamined": "BRAIN",
      "Columns": 832,
      "EchoNumbers": 1,
      "EchoTime": 37.0,
      "EchoTrainLength": 104,
      "FlipAngle": 52.0,
      "HighBit": 15,
      "ImageOrientationPatient": [0.99721183053766, 0.07220778752643, 0.01883083790678, -0.0601186893746, 0.926881402049, -0.3705085825235],
      "ImagePositionPatient": [-780.04440599405, -866.8713294145, 271.97111240293],
      "ImageType": [
        "ORIGINAL",
        "PRIMARY",
        "P",
        "MB",
        "ND",
        "MOSAIC"
],
      "ImagedNucleus": "1H",
      "ImagingFrequency": 123.260426,
      "InPlanePhaseEncodingDirection": "COL",
      "LargestImagePixelValue": 4095,
      "MRAcquisitionType": "2D",
      "MagneticFieldStrength": 3.0,
      "Manufacturer": "SIEMENS",
      "ManufacturerModelName": "Prisma_fit",
      "Modality": "MR",
      "NumberOfAverages": 1.0,
      "NumberOfPhaseEncodingSteps": 104,
      "PercentPhaseFieldOfView": 100.0,
      "PercentSampling": 100.0,
      "PerformedProcedureStepStartTime": "112255.108000",
      "PhotometricInterpretation": "MONOCHROME2",
      "PixelBandwidth": 2290.0,
      "PixelRepresentation": 0,
      "PixelSpacing": [2.0, 2.0],
      "ProtocolName": "func_task-mario3_run-02",
      "RepetitionTime": 1490.0,
      "RescaleIntercept": -4096.0,
      "RescaleSlope": 2.0,
      "RescaleType": "US",
      "Rows": 832,
      "SAR": 0.04827104529496,
      "SamplesPerPixel": 1,
      "ScanOptions": "FS",
      "ScanningSequence": "EP",
      "SequenceName": "epfid2d1_104",
      "SequenceVariant": [
        "SK",
        "SS"
],
      "SeriesDescription": "func_task-mario3_run-02",
      "SeriesNumber": 17,
      "SeriesTime": "114345.732000",
      "SliceLocation": -32.259775973793,
      "SliceThickness": 2.0,
      "SmallestImagePixelValue": 0,
      "SoftwareVersions": "syngo MR E11",
      "SpacingBetweenSlices": 1.9999999815687,
      "SpecificCharacterSet": "ISO_IR 100",
      "StudyID": "1",
      "StudyTime": "112255.030000",
      "TransmitCoilName": "Body",
      "VariableFlipAngleFlag": "N",
      "WindowCenterWidthExplanation": "Algo1",
      "dBdt": 0.0},
    "slices": {}
  },
  "time": {
    "samples": {
      "AcquisitionNumber": [1, 2, 3, 4, 5, 6, 7, 8, 9, 10, 11, 12, 13, 14, 15, 16, 17, 18, 19, 20, 21, 22, 23, 24, 25, 26, 27, 28, 29, 30, 31, 32, 33, 34, 35, 36, 37, 38, 39, 40, 41, 42, 43, 44, 45, 46, 47, 48, 49, 50, 51, 52, 53, 54, 55, 56, 57, 58, 59, 60, 61, 62, 63, 64, 65, 66, 67, 68, 69, 70, 71, 72, 73, 74, 75, 76, 77, 78, 79, 80, 81, 82, 83, 84, 85, 86, 87, 88, 89, 90, 91, 92, 93, 94, 95, 96, 97, 98, 99, 100, 101, 102, 103, 104, 105, 106, 107, 108, 109, 110, 111, 112, 113, 114, 115, 116, 117, 118, 119, 120, 121, 122, 123, 124, 125, 126, 127, 128, 129, 130, 131, 132, 133, 134, 135, 136, 137, 138, 139, 140, 141, 142, 143, 144, 145, 146, 147, 148, 149, 150, 151, 152, 153, 154, 155, 156, 157, 158, 159, 160, 161, 162, 163, 164, 165, 166, 167, 168, 169, 170, 171, 172, 173, 174, 175, 176, 177, 178, 179, 180, 181, 182, 183, 184, 185, 186, 187, 188, 189, 190, 191, 192, 193, 194, 195, 196, 197, 198, 199, 200, 201, 202, 203, 204, 205, 206, 207, 208, 209, 210, 211, 212, 213, 214, 215, 216, 217, 218, 219, 220, 221, 222, 223, 224, 225, 226, 227, 228, 229, 230, 231, 232, 233, 234, 235, 236, 237, 238, 239, 240, 241, 242, 243, 244, 245, 246, 247, 248, 249, 250, 251, 252, 253, 254, 255, 256, 257, 258, 259, 260, 261, 262, 263, 264, 265, 266, 267, 268, 269, 270, 271, 272, 273, 274, 275, 276, 277, 278, 279, 280, 281, 282, 283, 284, 285, 286, 287, 288, 289, 290, 291, 292, 293, 294, 295, 296, 297, 298, 299, 300, 301, 302, 303, 304, 305, 306, 307, 308, 309, 310, 311, 312, 313, 314, 315, 316, 317, 318, 319, 320, 321, 322, 323, 324, 325, 326, 327, 328, 329, 330, 331, 332, 333, 334, 335, 336, 337, 338, 339, 340, 341, 342, 343, 344, 345, 346, 347, 348, 349, 350, 351, 352, 353, 354, 355, 356, 357, 358, 359, 360, 361, 362, 363, 364, 365, 366, 367, 368, 369, 370, 371, 372, 373, 374, 375, 376, 377, 378],
      "AcquisitionTime": ["114248.592500", "114250.082500", "114251.572500", "114253.062500", "114254.552500", "114256.042500", "114257.532500", "114259.022500", "114300.512500", "114302.002500", "114303.492500", "114304.982500", "114306.472500", "114307.962500", "114309.452500", "114310.942500", "114312.432500", "114313.922500", "114315.412500", "114316.902500", "114318.392500", "114319.882500", "114321.372500", "114322.862500", "114324.352500", "114325.842500", "114327.332500", "114328.822500", "114330.312500", "114331.802500", "114333.292500", "114334.782500", "114336.272500", "114337.762500", "114339.252500", "114340.742500", "114342.232500", "114343.722500", "114345.212500", "114346.702500", "114348.192500", "114349.682500", "114351.172500", "114352.662500", "114354.152500", "114355.642500", "114357.132500", "114358.622500", "114400.112500", "114401.602500", "114403.092500", "114404.582500", "114406.072500", "114407.562500", "114409.052500", "114410.542500", "114412.032500", "114413.522500", "114415.012500", "114416.502500", "114417.992500", "114419.482500", "114420.972500", "114422.462500", "114423.952500", "114425.442500", "114426.932500", "114428.422500", "114429.912500", "114431.402500", "114432.892500", "114434.382500", "114435.872500", "114437.362500", "114438.852500", "114440.342500", "114441.832500", "114443.322500", "114444.812500", "114446.302500", "114447.792500", "114449.282500", "114450.772500", "114452.262500", "114453.752500", "114455.242500", "114456.732500", "114458.222500", "114459.712500", "114501.202500", "114502.692500", "114504.182500", "114505.672500", "114507.162500", "114508.652500", "114510.142500", "114511.632500", "114513.122500", "114514.612500", "114516.102500", "114517.592500", "114519.082500", "114520.572500", "114522.062500", "114523.552500", "114525.042500", "114526.532500", "114528.022500", "114529.512500", "114531.002500", "114532.492500", "114533.982500", "114535.472500", "114536.962500", "114538.452500", "114539.942500", "114541.432500", "114542.922500", "114544.412500", "114545.902500", "114547.392500", "114548.882500", "114550.372500", "114551.862500", "114553.352500", "114554.842500", "114556.332500", "114557.822500", "114559.312500", "114600.802500", "114602.292500", "114603.782500", "114605.272500", "114606.762500", "114608.252500", "114609.742500", "114611.232500", "114612.722500", "114614.212500", "114615.702500", "114617.192500", "114618.682500", "114620.172500", "114621.662500", "114623.152500", "114624.642500", "114626.132500", "114627.622500", "114629.112500", "114630.602500", "114632.092500", "114633.582500", "114635.072500", "114636.562500", "114638.052500", "114639.542500", "114641.032500", "114642.522500", "114644.012500", "114645.502500", "114646.992500", "114648.482500", "114649.972500", "114651.462500", "114652.952500", "114654.442500", "114655.932500", "114657.422500", "114658.912500", "114700.402500", "114701.892500", "114703.382500", "114704.872500", "114706.362500", "114707.852500", "114709.342500", "114710.832500", "114712.322500", "114713.812500", "114715.302500", "114716.792500", "114718.282500", "114719.772500", "114721.262500", "114722.752500", "114724.242500", "114725.732500", "114727.222500", "114728.712500", "114730.202500", "114731.692500", "114733.182500", "114734.672500", "114736.162500", "114737.652500", "114739.142500", "114740.632500", "114742.122500", "114743.612500", "114745.102500", "114746.592500", "114748.082500", "114749.572500", "114751.062500", "114752.552500", "114754.042500", "114755.532500", "114757.022500", "114758.512500", "114800.002500", "114801.492500", "114802.982500", "114804.472500", "114805.962500", "114807.452500", "114808.942500", "114810.432500", "114811.922500", "114813.412500", "114814.902500", "114816.392500", "114817.882500", "114819.372500", "114820.862500", "114822.352500", "114823.842500", "114825.332500", "114826.822500", "114828.312500", "114829.802500", "114831.292500", "114832.782500", "114834.272500", "114835.762500", "114837.252500", "114838.742500", "114840.232500", "114841.722500", "114843.212500", "114844.702500", "114846.192500", "114847.682500", "114849.172500", "114850.662500", "114852.152500", "114853.642500", "114855.132500", "114856.622500", "114858.112500", "114859.602500", "114901.092500", "114902.582500", "114904.072500", "114905.562500", "114907.052500", "114908.542500", "114910.032500", "114911.522500", "114913.012500", "114914.502500", "114915.992500", "114917.482500", "114918.972500", "114920.462500", "114921.952500", "114923.442500", "114924.932500", "114926.422500", "114927.912500", "114929.402500", "114930.892500", "114932.382500", "114933.872500", "114935.362500", "114936.852500", "114938.342500", "114939.832500", "114941.322500", "114942.812500", "114944.302500", "114945.792500", "114947.282500", "114948.772500", "114950.262500", "114951.752500", "114953.242500", "114954.732500", "114956.222500", "114957.712500", "114959.202500", "115000.692500", "115002.182500", "115003.672500", "115005.162500", "115006.652500", "115008.142500", "115009.632500", "115011.122500", "115012.612500", "115014.102500", "115015.592500", "115017.082500", "115018.572500", "115020.062500", "115021.552500", "115023.042500", "115024.532500", "115026.022500", "115027.512500", "115029.002500", "115030.492500", "115031.982500", "115033.472500", "115034.962500", "115036.452500", "115037.942500", "115039.432500", "115040.922500", "115042.412500", "115043.902500", "115045.392500", "115046.882500", "115048.372500", "115049.862500", "115051.352500", "115052.842500", "115054.332500", "115055.822500", "115057.312500", "115058.802500", "115100.292500", "115101.782500", "115103.272500", "115104.762500", "115106.252500", "115107.742500", "115109.232500", "115110.722500", "115112.212500", "115113.702500", "115115.192500", "115116.682500", "115118.172500", "115119.662500", "115121.152500", "115122.642500", "115124.132500", "115125.622500", "115127.112500", "115128.602500", "115130.092500", "115131.582500", "115133.072500", "115134.562500", "115136.052500", "115137.542500", "115139.032500", "115140.522500", "115142.012500", "115143.502500", "115144.992500", "115146.482500", "115147.972500", "115149.462500", "115150.952500", "115152.442500", "115153.932500", "115155.422500", "115156.912500", "115158.402500", "115159.892500", "115201.382500", "115202.872500", "115204.362500", "115205.852500", "115207.342500", "115208.832500", "115210.322500"],
      "ContentTime": ["114345.734000", "114345.736000", "114345.739000", "114345.741000", "114345.744000", "114345.746000", "114345.749000", "114345.751000", "114345.757000", "114405.760000", "114405.763000", "114405.765000", "114405.767000", "114405.770000", "114405.772000", "114405.775000", "114405.777000", "114405.780000", "114405.782000", "114405.785000", "114405.787000", "114405.789000", "114405.792000", "114405.794000", "114405.797000", "114405.799000", "114405.802000", "114405.804000", "114405.807000", "114405.809000", "114425.747000", "114425.750000", "114425.753000", "114425.755000", "114425.758000", "114425.769000", "114425.772000", "114425.774000", "114425.776000", "114425.779000", "114425.781000", "114425.784000", "114425.786000", "114425.789000", "114425.791000", "114425.794000", "114425.796000", "114425.799000", "114425.801000", "114425.803000", "114445.758000", "114445.761000", "114445.763000", "114445.766000", "114445.768000", "114445.771000", "114445.773000", "114445.776000", "114445.778000", "114445.780000", "114445.783000", "114445.785000", "114445.806000", "114445.808000", "114445.811000", "114445.813000", "114445.816000", "114445.818000", "114445.820000", "114445.823000", "114505.762000", "114505.765000", "114505.767000", "114505.770000", "114505.772000", "114505.775000", "114505.777000", "114505.780000", "114505.782000", "114505.785000", "114505.787000", "114505.790000", "114505.792000", "114505.794000", "114505.797000", "114505.799000", "114505.802000", "114505.804000", "114505.807000", "114505.809000", "114545.772000", "114545.774000", "114545.777000", "114545.779000", "114545.782000", "114545.830000", "114545.832000", "114545.835000", "114545.837000", "114545.840000", "114545.842000", "114545.844000", "114545.847000", "114545.849000", "114545.852000", "114545.854000", "114545.857000", "114545.859000", "114545.862000", "114545.864000", "114545.866000", "114545.869000", "114545.871000", "114545.874000", "114545.876000", "114545.879000", "114545.881000", "114545.884000", "114625.773000", "114625.775000", "114625.778000", "114625.780000", "114625.783000", "114625.847000", "114625.850000", "114625.852000", "114625.854000", "114625.857000", "114625.859000", "114625.862000", "114625.864000", "114625.867000", "114625.869000", "114625.871000", "114625.874000", "114625.876000", "114625.879000", "114625.881000", "114625.884000", "114625.886000", "114625.889000", "114625.891000", "114625.894000", "114625.896000", "114625.898000", "114706.168000", "114706.171000", "114706.173000", "114706.176000", "114706.178000", "114706.181000", "114706.183000", "114706.186000", "114706.188000", "114706.191000", "114706.193000", "114706.196000", "114706.198000", "114706.201000", "114706.203000", "114706.205000", "114706.208000", "114706.210000", "114706.213000", "114706.215000", "114706.218000", "114706.220000", "114706.223000", "114706.225000", "114706.228000", "114706.230000", "114706.232000", "114745.766000", "114745.768000", "114745.771000", "114745.773000", "114745.776000", "114745.778000", "114745.781000", "114745.783000", "114745.786000", "114745.788000", "114745.791000", "114745.793000", "114745.795000", "114745.798000", "114745.800000", "114745.803000", "114745.805000", "114745.808000", "114745.810000", "114745.813000", "114745.815000", "114745.818000", "114745.820000", "114745.823000", "114745.826000", "114745.828000", "114745.831000", "114825.800000", "114825.803000", "114825.806000", "114825.808000", "114825.811000", "114825.813000", "114825.816000", "114825.818000", "114825.820000", "114825.823000", "114825.825000", "114825.828000", "114825.830000", "114825.833000", "114825.835000", "114825.838000", "114825.840000", "114825.843000", "114825.845000", "114825.848000", "114825.850000", "114825.853000", "114825.855000", "114825.858000", "114825.860000", "114825.862000", "114905.791000", "114905.794000", "114905.796000", "114905.799000", "114905.801000", "114905.804000", "114905.806000", "114905.809000", "114905.812000", "114905.815000", "114905.817000", "114905.820000", "114905.822000", "114905.825000", "114905.828000", "114905.830000", "114905.833000", "114905.835000", "114905.837000", "114905.840000", "114905.842000", "114905.845000", "114905.847000", "114905.850000", "114905.852000", "114905.855000", "114905.857000", "114945.799000", "114945.801000", "114945.804000", "114945.806000", "114945.809000", "114945.811000", "114945.814000", "114945.816000", "114945.819000", "114945.821000", "114945.824000", "114945.826000", "114945.829000", "114945.831000", "114945.833000", "114945.836000", "114945.838000", "114945.841000", "114945.843000", "114945.846000", "114945.848000", "114945.851000", "114945.853000", "114945.856000", "114945.858000", "114945.861000", "114945.863000", "115025.767000", "115025.770000", "115025.773000", "115025.775000", "115025.778000", "115025.780000", "115025.782000", "115025.785000", "115025.788000", "115025.790000", "115025.793000", "115025.795000", "115025.797000", "115025.800000", "115025.802000", "115025.805000", "115025.807000", "115025.810000", "115025.812000", "115025.815000", "115025.817000", "115025.820000", "115025.822000", "115025.825000", "115025.827000", "115025.829000", "115025.832000", "115105.781000", "115105.784000", "115105.786000", "115105.789000", "115105.791000", "115105.794000", "115105.796000", "115105.799000", "115105.801000", "115105.804000", "115105.806000", "115105.809000", "115105.811000", "115105.814000", "115105.816000", "115105.818000", "115105.821000", "115105.823000", "115105.826000", "115105.828000", "115105.831000", "115105.833000", "115105.836000", "115105.838000", "115105.841000", "115105.843000", "115105.846000", "115145.783000", "115145.786000", "115145.789000", "115145.791000", "115145.794000", "115145.796000", "115145.799000", "115145.801000", "115145.803000", "115145.806000", "115145.808000", "115145.811000", "115145.813000", "115145.816000", "115145.818000", "115145.821000", "115145.823000", "115145.826000", "115145.828000", "115145.831000", "115145.833000", "115145.835000", "115145.838000", "115145.840000", "115145.843000", "115145.846000", "115145.848000", "115205.708000", "115205.710000", "115205.713000", "115205.715000", "115205.718000", "115205.720000", "115205.723000", "115205.725000", "115205.728000", "115205.730000", "115205.733000", "115205.735000", "115205.738000", "115212.311000", "115212.314000", "115212.316000", "115212.319000", "115212.321000"],
      "InstanceCreationTime": ["114345.734000", "114345.736000", "114345.739000", "114345.741000", "114345.744000", "114345.746000", "114345.749000", "114345.751000", "114345.757000", "114405.760000", "114405.763000", "114405.765000", "114405.767000", "114405.770000", "114405.772000", "114405.775000", "114405.777000", "114405.780000", "114405.782000", "114405.785000", "114405.787000", "114405.789000", "114405.792000", "114405.794000", "114405.797000", "114405.799000", "114405.802000", "114405.804000", "114405.807000", "114405.809000", "114425.747000", "114425.750000", "114425.753000", "114425.755000", "114425.758000", "114425.769000", "114425.772000", "114425.774000", "114425.776000", "114425.779000", "114425.781000", "114425.784000", "114425.786000", "114425.789000", "114425.791000", "114425.794000", "114425.796000", "114425.799000", "114425.801000", "114425.803000", "114445.758000", "114445.761000", "114445.763000", "114445.766000", "114445.768000", "114445.771000", "114445.773000", "114445.776000", "114445.778000", "114445.780000", "114445.783000", "114445.785000", "114445.806000", "114445.808000", "114445.811000", "114445.813000", "114445.816000", "114445.818000", "114445.820000", "114445.823000", "114505.762000", "114505.765000", "114505.767000", "114505.770000", "114505.772000", "114505.775000", "114505.777000", "114505.780000", "114505.782000", "114505.785000", "114505.787000", "114505.790000", "114505.792000", "114505.794000", "114505.797000", "114505.799000", "114505.802000", "114505.804000", "114505.807000", "114505.809000", "114545.772000", "114545.774000", "114545.777000", "114545.779000", "114545.782000", "114545.830000", "114545.832000", "114545.835000", "114545.837000", "114545.840000", "114545.842000", "114545.844000", "114545.847000", "114545.849000", "114545.852000", "114545.854000", "114545.857000", "114545.859000", "114545.862000", "114545.864000", "114545.866000", "114545.869000", "114545.871000", "114545.874000", "114545.876000", "114545.879000", "114545.881000", "114545.884000", "114625.773000", "114625.775000", "114625.778000", "114625.780000", "114625.783000", "114625.847000", "114625.850000", "114625.852000", "114625.854000", "114625.857000", "114625.859000", "114625.862000", "114625.864000", "114625.867000", "114625.869000", "114625.871000", "114625.874000", "114625.876000", "114625.879000", "114625.881000", "114625.884000", "114625.886000", "114625.889000", "114625.891000", "114625.894000", "114625.896000", "114625.898000", "114706.168000", "114706.171000", "114706.173000", "114706.176000", "114706.178000", "114706.181000", "114706.183000", "114706.186000", "114706.188000", "114706.191000", "114706.193000", "114706.196000", "114706.198000", "114706.201000", "114706.203000", "114706.205000", "114706.208000", "114706.210000", "114706.213000", "114706.215000", "114706.218000", "114706.220000", "114706.223000", "114706.225000", "114706.228000", "114706.230000", "114706.232000", "114745.766000", "114745.768000", "114745.771000", "114745.773000", "114745.776000", "114745.778000", "114745.781000", "114745.783000", "114745.786000", "114745.788000", "114745.791000", "114745.793000", "114745.795000", "114745.798000", "114745.800000", "114745.803000", "114745.805000", "114745.808000", "114745.810000", "114745.813000", "114745.815000", "114745.818000", "114745.820000", "114745.823000", "114745.826000", "114745.828000", "114745.831000", "114825.800000", "114825.803000", "114825.806000", "114825.808000", "114825.811000", "114825.813000", "114825.816000", "114825.818000", "114825.820000", "114825.823000", "114825.825000", "114825.828000", "114825.830000", "114825.833000", "114825.835000", "114825.838000", "114825.840000", "114825.843000", "114825.845000", "114825.848000", "114825.850000", "114825.853000", "114825.855000", "114825.858000", "114825.860000", "114825.862000", "114905.791000", "114905.794000", "114905.796000", "114905.799000", "114905.801000", "114905.804000", "114905.806000", "114905.809000", "114905.812000", "114905.815000", "114905.817000", "114905.820000", "114905.822000", "114905.825000", "114905.828000", "114905.830000", "114905.833000", "114905.835000", "114905.837000", "114905.840000", "114905.842000", "114905.845000", "114905.847000", "114905.850000", "114905.852000", "114905.855000", "114905.857000", "114945.799000", "114945.801000", "114945.804000", "114945.806000", "114945.809000", "114945.811000", "114945.814000", "114945.816000", "114945.819000", "114945.821000", "114945.824000", "114945.826000", "114945.829000", "114945.831000", "114945.833000", "114945.836000", "114945.838000", "114945.841000", "114945.843000", "114945.846000", "114945.848000", "114945.851000", "114945.853000", "114945.856000", "114945.858000", "114945.861000", "114945.863000", "115025.767000", "115025.770000", "115025.773000", "115025.775000", "115025.778000", "115025.780000", "115025.782000", "115025.785000", "115025.788000", "115025.790000", "115025.793000", "115025.795000", "115025.797000", "115025.800000", "115025.802000", "115025.805000", "115025.807000", "115025.810000", "115025.812000", "115025.815000", "115025.817000", "115025.820000", "115025.822000", "115025.825000", "115025.827000", "115025.829000", "115025.832000", "115105.781000", "115105.784000", "115105.786000", "115105.789000", "115105.791000", "115105.794000", "115105.796000", "115105.799000", "115105.801000", "115105.804000", "115105.806000", "115105.809000", "115105.811000", "115105.814000", "115105.816000", "115105.818000", "115105.821000", "115105.823000", "115105.826000", "115105.828000", "115105.831000", "115105.833000", "115105.836000", "115105.838000", "115105.841000", "115105.843000", "115105.846000", "115145.783000", "115145.786000", "115145.789000", "115145.791000", "115145.794000", "115145.796000", "115145.799000", "115145.801000", "115145.803000", "115145.806000", "115145.808000", "115145.811000", "115145.813000", "115145.816000", "115145.818000", "115145.821000", "115145.823000", "115145.826000", "115145.828000", "115145.831000", "115145.833000", "115145.835000", "115145.838000", "115145.840000", "115145.843000", "115145.846000", "115145.848000", "115205.708000", "115205.710000", "115205.713000", "115205.715000", "115205.718000", "115205.720000", "115205.723000", "115205.725000", "115205.728000", "115205.730000", "115205.733000", "115205.735000", "115205.738000", "115212.311000", "115212.314000", "115212.316000", "115212.319000", "115212.321000"],
      "InstanceNumber": [1, 2, 3, 4, 5, 6, 7, 8, 9, 10, 11, 12, 13, 14, 15, 16, 17, 18, 19, 20, 21, 22, 23, 24, 25, 26, 27, 28, 29, 30, 31, 32, 33, 34, 35, 36, 37, 38, 39, 40, 41, 42, 43, 44, 45, 46, 47, 48, 49, 50, 51, 52, 53, 54, 55, 56, 57, 58, 59, 60, 61, 62, 63, 64, 65, 66, 67, 68, 69, 70, 71, 72, 73, 74, 75, 76, 77, 78, 79, 80, 81, 82, 83, 84, 85, 86, 87, 88, 89, 90, 91, 92, 93, 94, 95, 96, 97, 98, 99, 100, 101, 102, 103, 104, 105, 106, 107, 108, 109, 110, 111, 112, 113, 114, 115, 116, 117, 118, 119, 120, 121, 122, 123, 124, 125, 126, 127, 128, 129, 130, 131, 132, 133, 134, 135, 136, 137, 138, 139, 140, 141, 142, 143, 144, 145, 146, 147, 148, 149, 150, 151, 152, 153, 154, 155, 156, 157, 158, 159, 160, 161, 162, 163, 164, 165, 166, 167, 168, 169, 170, 171, 172, 173, 174, 175, 176, 177, 178, 179, 180, 181, 182, 183, 184, 185, 186, 187, 188, 189, 190, 191, 192, 193, 194, 195, 196, 197, 198, 199, 200, 201, 202, 203, 204, 205, 206, 207, 208, 209, 210, 211, 212, 213, 214, 215, 216, 217, 218, 219, 220, 221, 222, 223, 224, 225, 226, 227, 228, 229, 230, 231, 232, 233, 234, 235, 236, 237, 238, 239, 240, 241, 242, 243, 244, 245, 246, 247, 248, 249, 250, 251, 252, 253, 254, 255, 256, 257, 258, 259, 260, 261, 262, 263, 264, 265, 266, 267, 268, 269, 270, 271, 272, 273, 274, 275, 276, 277, 278, 279, 280, 281, 282, 283, 284, 285, 286, 287, 288, 289, 290, 291, 292, 293, 294, 295, 296, 297, 298, 299, 300, 301, 302, 303, 304, 305, 306, 307, 308, 309, 310, 311, 312, 313, 314, 315, 316, 317, 318, 319, 320, 321, 322, 323, 324, 325, 326, 327, 328, 329, 330, 331, 332, 333, 334, 335, 336, 337, 338, 339, 340, 341, 342, 343, 344, 345, 346, 347, 348, 349, 350, 351, 352, 353, 354, 355, 356, 357, 358, 359, 360, 361, 362, 363, 364, 365, 366, 367, 368, 369, 370, 371, 372, 373, 374, 375, 376, 377, 378],
