{
  "AcquisitionMatrixPE": 104,
  "AcquisitionNumber": 1,
  "AcquisitionTime": "11:31:58.762500",
  "BandwidthPerPixelPhaseEncode": 17.17,
  "BaseResolution": 104,
  "BodyPartExamined": "BRAIN",
  "CoilCombinationMethod": "Sum of Squares",
  "ConsistencyInfo": "N4_VE11C_LATEST_20160120",
  "ConversionSoftware": "dcm2niix",
  "ConversionSoftwareVersion": "v1.0.20220505",
  "DerivedVendorReportedEchoSpacing": 0.000560011,
  "DeviceSerialNumber": "167006",
  "DwellTime": 2.1e-06,
  "EchoTime": 0.037,
  "EchoTime1": 0.037,
  "EchoTime2": 0.001,
  "EchoTrainLength": 104,
  "EffectiveEchoSpacing": 0.000560011,
  "FlipAngle": 52,
  "HeudiconvVersion": "0.5.3.post811+g6206e14",
  "ImageComments": "Unaliased MB4/PE3/LB",
  "ImageOrientationPatientDICOM": [0.997212, 0.0722078, 0.0188308, -0.0601187, 0.926881, -0.370509],
  "ImageOrientationText": "Tra>Cor(-21.6)>Sag(2.5)",
  "ImageType": [
    "ORIGINAL",
    "PRIMARY",
    "P",
    "MB",
    "ND",
    "MOSAIC",
    "PHASE"
],
  "ImagingFrequency": 123.26,
  "InPlanePhaseEncodingDirectionDICOM": "COL",
  "InstitutionAddress": "Chemin Queen-Mary 4565,Montreal,District,CA,H3W 1W5",
  "InstitutionName": "IUGM",
  "InstitutionalDepartmentName": "Department",
  "MRAcquisitionType": "2D",
  "MagneticFieldStrength": 3,
  "Manufacturer": "Siemens",
  "ManufacturersModelName": "Prisma_fit",
  "MatrixCoilMode": "SENSE",
  "Modality": "MR",
  "MultibandAccelerationFactor": 4,
  "PartialFourier": 1,
  "PatientPosition": "HFS",
  "PercentPhaseFOV": 100,
  "PercentSampling": 100,
  "PhaseEncodingDirection": "j",
  "PhaseEncodingSteps": 104,
  "PhaseResolution": 1,
  "PixelBandwidth": 2290,
  "ProcedureStepDescription": "games^mario3",
  "ProtocolName": "func_task-mario3_run-01",
  "PulseSequenceDetails": "%CustomerSeq%\\cmrr_mbep2d_bold",
  "ReceiveCoilActiveElements": "HC1-7;NC1,2",
  "ReceiveCoilName": "HeadNeck_64",
  "ReconMatrixPE": 104,
  "RepetitionTime": 1.49,
  "SAR": 0.048271,
  "ScanOptions": "FS",
  "ScanningSequence": "EP",
  "SequenceName": "epfid2d1_104",
  "SequenceVariant": "SK\\SS",
  "SeriesDescription": "func_task-mario3_run-01",
  "SeriesNumber": 14,
  "ShimSetting": [616, -7191, -8816, 621, 85, 13, -89, 6],
  "SliceThickness": 2,
  "SliceTiming": [0, 0.7825, 0.0975, 0.88, 0.195, 0.9775, 0.2925, 1.0775, 0.39, 1.175, 0.4875, 1.2725, 0.5875, 1.37, 0.685, 0, 0.7825, 0.0975, 0.88, 0.195, 0.9775, 0.2925, 1.0775, 0.39, 1.175, 0.4875, 1.2725, 0.5875, 1.37, 0.685, 0, 0.7825, 0.0975, 0.88, 0.195, 0.9775, 0.2925, 1.0775, 0.39, 1.175, 0.4875, 1.2725, 0.5875, 1.37, 0.685, 0, 0.7825, 0.0975, 0.88, 0.195, 0.9775, 0.2925, 1.0775, 0.39, 1.175, 0.4875, 1.2725, 0.5875, 1.37, 0.685],
  "SoftwareVersions": "syngo MR E11",
  "SpacingBetweenSlices": 2,
  "StationName": "MRC35049",
  "TaskName": "mario3",
  "TotalReadoutTime": 0.0576811,
  "TxRefAmp": 251.672,
  "WipMemBlock": "2ac15d0a-2dfd-440d-96f8-7ed5472663b0||Sequence: R017 ve11c/master r/75a17815+; Jun 28 2022 16:32:11 by eja",
  "dcmmeta_affine": [
    [-1.9944236278533936, -0.12023738026618958, 0.08841511607170105, 110.22505187988281],
    [-0.14441557228565216, 1.8537627458572388, -0.7366868853569031, -51.403167724609375],
    [0.03766167536377907, 0.7410171627998352, 1.857276201248169, -60.37505340576172],
    [0.0, 0.0, 0.0, 1.0]
],
  "dcmmeta_reorient_transform": [
    [0.0, -1.0, 0.0, 103.0],
    [1.0, 0.0, 0.0, 0.0],
    [0.0, 0.0, 1.0, 0.0],
    [0.0, 0.0, 0.0, 1.0]
],
  "dcmmeta_shape": [104, 104, 60, 347],
  "dcmmeta_slice_dim": 2,
  "dcmmeta_version": 0.6,
  "global": {
    "const": {
      "AcquisitionMatrix": [104, 0, 0, 104],
      "AngioFlag": "N",
      "BitsAllocated": 16,
      "BitsStored": 16,
      "BodyPartExamined": "BRAIN",
      "Columns": 832,
      "EchoNumbers": 1,
      "EchoTime": 37.0,
      "EchoTrainLength": 104,
      "FlipAngle": 52.0,
      "HighBit": 15,
      "ImageOrientationPatient": [0.99721183053766, 0.07220778752643, 0.01883083790678, -0.0601186893746, 0.926881402049, -0.3705085825235],
      "ImagePositionPatient": [-780.04440599405, -866.8713294145, 271.97111240293],
      "ImageType": [
        "ORIGINAL",
        "PRIMARY",
        "P",
        "MB",
        "ND",
        "MOSAIC"
],
      "ImagedNucleus": "1H",
      "ImagingFrequency": 123.260418,
      "InPlanePhaseEncodingDirection": "COL",
      "LargestImagePixelValue": 4095,
      "MRAcquisitionType": "2D",
      "MagneticFieldStrength": 3.0,
      "Manufacturer": "SIEMENS",
      "ManufacturerModelName": "Prisma_fit",
      "Modality": "MR",
      "NumberOfAverages": 1.0,
      "NumberOfPhaseEncodingSteps": 104,
      "PercentPhaseFieldOfView": 100.0,
      "PercentSampling": 100.0,
      "PerformedProcedureStepStartTime": "112255.108000",
      "PhotometricInterpretation": "MONOCHROME2",
      "PixelBandwidth": 2290.0,
      "PixelRepresentation": 0,
      "PixelSpacing": [2.0, 2.0],
      "ProtocolName": "func_task-mario3_run-01",
      "RepetitionTime": 1490.0,
      "RescaleIntercept": -4096.0,
      "RescaleSlope": 2.0,
      "RescaleType": "US",
      "Rows": 832,
      "SAR": 0.04827104529496,
      "SamplesPerPixel": 1,
      "ScanOptions": "FS",
      "ScanningSequence": "EP",
      "SequenceName": "epfid2d1_104",
      "SequenceVariant": [
        "SK",
        "SS"
],
      "SeriesDescription": "func_task-mario3_run-01",
      "SeriesNumber": 14,
      "SeriesTime": "113252.120000",
      "SliceLocation": -32.259775973793,
      "SliceThickness": 2.0,
      "SmallestImagePixelValue": 0,
      "SoftwareVersions": "syngo MR E11",
      "SpacingBetweenSlices": 1.9999999815687,
      "SpecificCharacterSet": "ISO_IR 100",
      "StudyID": "1",
      "StudyTime": "112255.030000",
      "TransmitCoilName": "Body",
      "VariableFlipAngleFlag": "N",
      "WindowCenterWidthExplanation": "Algo1",
      "dBdt": 0.0},
    "slices": {}
  },
  "time": {
    "samples": {
      "AcquisitionNumber": [1, 2, 3, 4, 5, 6, 7, 8, 9, 10, 11, 12, 13, 14, 15, 16, 17, 18, 19, 20, 21, 22, 23, 24, 25, 26, 27, 28, 29, 30, 31, 32, 33, 34, 35, 36, 37, 38, 39, 40, 41, 42, 43, 44, 45, 46, 47, 48, 49, 50, 51, 52, 53, 54, 55, 56, 57, 58, 59, 60, 61, 62, 63, 64, 65, 66, 67, 68, 69, 70, 71, 72, 73, 74, 75, 76, 77, 78, 79, 80, 81, 82, 83, 84, 85, 86, 87, 88, 89, 90, 91, 92, 93, 94, 95, 96, 97, 98, 99, 100, 101, 102, 103, 104, 105, 106, 107, 108, 109, 110, 111, 112, 113, 114, 115, 116, 117, 118, 119, 120, 121, 122, 123, 124, 125, 126, 127, 128, 129, 130, 131, 132, 133, 134, 135, 136, 137, 138, 139, 140, 141, 142, 143, 144, 145, 146, 147, 148, 149, 150, 151, 152, 153, 154, 155, 156, 157, 158, 159, 160, 161, 162, 163, 164, 165, 166, 167, 168, 169, 170, 171, 172, 173, 174, 175, 176, 177, 178, 179, 180, 181, 182, 183, 184, 185, 186, 187, 188, 189, 190, 191, 192, 193, 194, 195, 196, 197, 198, 199, 200, 201, 202, 203, 204, 205, 206, 207, 208, 209, 210, 211, 212, 213, 214, 215, 216, 217, 218, 219, 220, 221, 222, 223, 224, 225, 226, 227, 228, 229, 230, 231, 232, 233, 234, 235, 236, 237, 238, 239, 240, 241, 242, 243, 244, 245, 246, 247, 248, 249, 250, 251, 252, 253, 254, 255, 256, 257, 258, 259, 260, 261, 262, 263, 264, 265, 266, 267, 268, 269, 270, 271, 272, 273, 274, 275, 276, 277, 278, 279, 280, 281, 282, 283, 284, 285, 286, 287, 288, 289, 290, 291, 292, 293, 294, 295, 296, 297, 298, 299, 300, 301, 302, 303, 304, 305, 306, 307, 308, 309, 310, 311, 312, 313, 314, 315, 316, 317, 318, 319, 320, 321, 322, 323, 324, 325, 326, 327, 328, 329, 330, 331, 332, 333, 334, 335, 336, 337, 338, 339, 340, 341, 342, 343, 344, 345, 346, 347],
      "AcquisitionTime": ["113158.762500", "113200.252500", "113201.742500", "113203.232500", "113204.722500", "113206.212500", "113207.702500", "113209.192500", "113210.682500", "113212.172500", "113213.662500", "113215.152500", "113216.642500", "113218.132500", "113219.622500", "113221.112500", "113222.602500", "113224.092500", "113225.582500", "113227.072500", "113228.562500", "113230.052500", "113231.542500", "113233.032500", "113234.522500", "113236.012500", "113237.502500", "113238.992500", "113240.482500", "113241.972500", "113243.462500", "113244.952500", "113246.442500", "113247.932500", "113249.422500", "113250.912500", "113252.402500", "113253.892500", "113255.382500", "113256.872500", "113258.362500", "113259.852500", "113301.342500", "113302.832500", "113304.322500", "113305.812500", "113307.302500", "113308.792500", "113310.282500", "113311.772500", "113313.262500", "113314.752500", "113316.242500", "113317.732500", "113319.222500", "113320.712500", "113322.202500", "113323.692500", "113325.182500", "113326.672500", "113328.162500", "113329.652500", "113331.142500", "113332.632500", "113334.122500", "113335.612500", "113337.102500", "113338.592500", "113340.082500", "113341.572500", "113343.062500", "113344.552500", "113346.042500", "113347.532500", "113349.022500", "113350.512500", "113352.002500", "113353.492500", "113354.982500", "113356.472500", "113357.962500", "113359.452500", "113400.942500", "113402.432500", "113403.922500", "113405.412500", "113406.902500", "113408.392500", "113409.882500", "113411.372500", "113412.862500", "113414.352500", "113415.842500", "113417.332500", "113418.822500", "113420.312500", "113421.802500", "113423.292500", "113424.782500", "113426.272500", "113427.762500", "113429.252500", "113430.742500", "113432.232500", "113433.722500", "113435.212500", "113436.702500", "113438.192500", "113439.682500", "113441.172500", "113442.662500", "113444.152500", "113445.642500", "113447.132500", "113448.622500", "113450.112500", "113451.602500", "113453.092500", "113454.582500", "113456.072500", "113457.562500", "113459.052500", "113500.542500", "113502.032500", "113503.522500", "113505.012500", "113506.502500", "113507.992500", "113509.482500", "113510.972500", "113512.462500", "113513.952500", "113515.442500", "113516.932500", "113518.422500", "113519.912500", "113521.402500", "113522.892500", "113524.382500", "113525.872500", "113527.362500", "113528.852500", "113530.342500", "113531.832500", "113533.322500", "113534.812500", "113536.302500", "113537.792500", "113539.282500", "113540.772500", "113542.262500", "113543.752500", "113545.242500", "113546.732500", "113548.222500", "113549.712500", "113551.202500", "113552.692500", "113554.182500", "113555.672500", "113557.162500", "113558.652500", "113600.142500", "113601.632500", "113603.122500", "113604.612500", "113606.102500", "113607.592500", "113609.082500", "113610.572500", "113612.062500", "113613.552500", "113615.042500", "113616.532500", "113618.022500", "113619.512500", "113621.002500", "113622.492500", "113623.982500", "113625.472500", "113626.962500", "113628.452500", "113629.942500", "113631.432500", "113632.922500", "113634.412500", "113635.902500", "113637.392500", "113638.882500", "113640.372500", "113641.862500", "113643.352500", "113644.842500", "113646.332500", "113647.822500", "113649.312500", "113650.802500", "113652.292500", "113653.782500", "113655.272500", "113656.762500", "113658.252500", "113659.742500", "113701.232500", "113702.722500", "113704.212500", "113705.702500", "113707.192500", "113708.682500", "113710.172500", "113711.662500", "113713.152500", "113714.642500", "113716.132500", "113717.622500", "113719.112500", "113720.602500", "113722.092500", "113723.582500", "113725.072500", "113726.562500", "113728.052500", "113729.542500", "113731.032500", "113732.522500", "113734.012500", "113735.502500", "113736.992500", "113738.482500", "113739.972500", "113741.462500", "113742.952500", "113744.442500", "113745.932500", "113747.422500", "113748.912500", "113750.402500", "113751.892500", "113753.382500", "113754.872500", "113756.362500", "113757.852500", "113759.342500", "113800.832500", "113802.322500", "113803.812500", "113805.302500", "113806.792500", "113808.282500", "113809.772500", "113811.262500", "113812.752500", "113814.242500", "113815.732500", "113817.222500", "113818.712500", "113820.202500", "113821.692500", "113823.182500", "113824.672500", "113826.162500", "113827.652500", "113829.142500", "113830.632500", "113832.122500", "113833.612500", "113835.102500", "113836.592500", "113838.082500", "113839.572500", "113841.062500", "113842.552500", "113844.042500", "113845.532500", "113847.022500", "113848.512500", "113850.002500", "113851.492500", "113852.982500", "113854.472500", "113855.962500", "113857.452500", "113858.942500", "113900.432500", "113901.922500", "113903.412500", "113904.902500", "113906.392500", "113907.882500", "113909.372500", "113910.862500", "113912.352500", "113913.842500", "113915.332500", "113916.822500", "113918.312500", "113919.802500", "113921.292500", "113922.782500", "113924.272500", "113925.762500", "113927.252500", "113928.742500", "113930.232500", "113931.722500", "113933.212500", "113934.702500", "113936.192500", "113937.682500", "113939.172500", "113940.662500", "113942.152500", "113943.642500", "113945.132500", "113946.622500", "113948.112500", "113949.602500", "113951.092500", "113952.582500", "113954.072500", "113955.562500", "113957.052500", "113958.542500", "114000.032500", "114001.522500", "114003.012500", "114004.502500", "114005.992500", "114007.482500", "114008.972500", "114010.462500", "114011.952500", "114013.442500", "114014.932500", "114016.422500", "114017.912500", "114019.402500", "114020.892500", "114022.382500", "114023.872500", "114025.362500", "114026.852500", "114028.342500", "114029.832500", "114031.322500", "114032.812500", "114034.302500"],
      "ContentTime": ["113252.122000", "113312.188000", "113312.191000", "113312.193000", "113312.196000", "113312.198000", "113312.201000", "113312.203000", "113312.206000", "113312.208000", "113312.211000", "113312.218000", "113312.221000", "113312.223000", "113312.226000", "113312.228000", "113312.230000", "113312.233000", "113312.235000", "113312.238000", "113312.240000", "113312.243000", "113332.170000", "113332.173000", "113332.175000", "113332.178000", "113332.180000", "113332.183000", "113332.185000", "113332.188000", "113332.190000", "113332.192000", "113332.195000", "113332.197000", "113332.200000", "113332.202000", "113332.205000", "113332.207000", "113332.209000", "113332.212000", "113332.214000", "113332.217000", "113352.711000", "113352.714000", "113352.716000", "113352.719000", "113352.721000", "113352.723000", "113352.726000", "113352.728000", "113352.731000", "113352.733000", "113352.736000", "113352.738000", "113352.741000", "113352.743000", "113352.746000", "113352.748000", "113352.751000", "113352.753000", "113352.755000", "113352.758000", "113412.157000", "113412.159000", "113412.162000", "113412.164000", "113412.167000", "113412.169000", "113412.172000", "113412.174000", "113412.176000", "113412.179000", "113412.181000", "113412.184000", "113412.186000", "113412.189000", "113412.191000", "113412.194000", "113412.196000", "113412.198000", "113412.201000", "113412.203000", "113432.172000", "113432.175000", "113432.177000", "113432.180000", "113432.182000", "113432.185000", "113432.187000", "113432.189000", "113432.192000", "113432.194000", "113432.197000", "113432.199000", "113432.202000", "113432.204000", "113432.207000", "113432.209000", "113432.211000", "113432.214000", "113432.216000", "113432.219000", "113512.197000", "113512.200000", "113512.202000", "113512.205000", "113512.207000", "113512.210000", "113512.212000", "113512.215000", "113512.217000", "113512.220000", "113512.222000", "113512.224000", "113512.227000", "113512.229000", "113512.232000", "113512.234000", "113512.237000", "113512.239000", "113512.241000", "113512.244000", "113512.246000", "113512.249000", "113512.251000", "113512.254000", "113512.256000", "113512.259000", "113512.261000", "113552.193000", "113552.196000", "113552.198000", "113552.200000", "113552.203000", "113552.205000", "113552.208000", "113552.210000", "113552.213000", "113552.215000", "113552.218000", "113552.220000", "113552.222000", "113552.225000", "113552.227000", "113552.230000", "113552.232000", "113552.235000", "113552.237000", "113552.240000", "113552.242000", "113552.245000", "113552.247000", "113552.250000", "113552.252000", "113552.254000", "113552.257000", "113632.189000", "113632.192000", "113632.194000", "113632.197000", "113632.199000", "113632.202000", "113632.204000", "113632.207000", "113632.209000", "113632.211000", "113632.214000", "113632.216000", "113632.219000", "113632.222000", "113632.224000", "113632.226000", "113632.229000", "113632.231000", "113632.234000", "113632.237000", "113632.239000", "113632.242000", "113632.244000", "113632.247000", "113632.249000", "113632.252000", "113712.191000", "113712.194000", "113712.205000", "113712.207000", "113712.210000", "113712.212000", "113712.214000", "113712.217000", "113712.219000", "113712.222000", "113712.224000", "113712.227000", "113712.229000", "113712.232000", "113712.234000", "113712.237000", "113712.239000", "113712.241000", "113712.244000", "113712.246000", "113712.249000", "113712.251000", "113712.254000", "113712.256000", "113712.259000", "113712.261000", "113712.264000", "113752.194000", "113752.196000", "113752.199000", "113752.201000", "113752.204000", "113752.206000", "113752.209000", "113752.211000", "113752.214000", "113752.216000", "113752.219000", "113752.221000", "113752.223000", "113752.226000", "113752.228000", "113752.231000", "113752.233000", "113752.236000", "113752.238000", "113752.241000", "113752.243000", "113752.246000", "113752.248000", "113752.251000", "113752.253000", "113752.256000", "113752.258000", "113832.184000", "113832.187000", "113832.189000", "113832.192000", "113832.195000", "113832.197000", "113832.200000", "113832.202000", "113832.205000", "113832.207000", "113832.210000", "113832.212000", "113832.215000", "113832.217000", "113832.219000", "113832.222000", "113832.225000", "113832.227000", "113832.229000", "113832.232000", "113832.234000", "113832.237000", "113832.239000", "113832.242000", "113832.245000", "113832.247000", "113832.249000", "113912.192000", "113912.195000", "113912.197000", "113912.200000", "113912.202000", "113912.204000", "113912.207000", "113912.209000", "113912.212000", "113912.214000", "113912.222000", "113912.224000", "113912.227000", "113912.229000", "113912.232000", "113912.234000", "113912.237000", "113912.239000", "113912.242000", "113912.244000", "113912.247000", "113912.249000", "113912.251000", "113912.254000", "113912.256000", "113912.259000", "113912.261000", "113952.201000", "113952.204000", "113952.206000", "113952.208000", "113952.211000", "113952.213000", "113952.216000", "113952.218000", "113952.221000", "113952.223000", "113952.226000", "113952.228000", "113952.231000", "113952.233000", "113952.236000", "113952.238000", "113952.241000", "113952.243000", "113952.245000", "113952.248000", "113952.250000", "113952.253000", "113952.255000", "113952.258000", "113952.260000", "113952.263000", "113952.265000", "114032.192000", "114032.194000", "114032.197000", "114032.199000", "114032.202000", "114032.204000", "114032.207000", "114032.209000", "114032.212000", "114032.214000", "114032.216000", "114032.219000", "114032.221000", "114032.224000", "114032.226000", "114032.229000", "114032.231000", "114032.234000", "114032.236000", "114032.239000", "114032.241000", "114032.243000", "114032.246000", "114032.248000", "114032.251000", "114032.253000", "114037.341000", "114037.344000", "114037.347000", "114037.349000"],
      "InstanceCreationTime": ["113252.122000", "113312.188000", "113312.191000", "113312.193000", "113312.196000", "113312.198000", "113312.201000", "113312.203000", "113312.206000", "113312.208000", "113312.211000", "113312.218000", "113312.221000", "113312.223000", "113312.226000", "113312.228000", "113312.230000", "113312.233000", "113312.235000", "113312.238000", "113312.240000", "113312.243000", "113332.170000", "113332.173000", "113332.175000", "113332.178000", "113332.180000", "113332.183000", "113332.185000", "113332.188000", "113332.190000", "113332.192000", "113332.195000", "113332.197000", "113332.200000", "113332.202000", "113332.205000", "113332.207000", "113332.209000", "113332.212000", "113332.214000", "113332.217000", "113352.711000", "113352.714000", "113352.716000", "113352.719000", "113352.721000", "113352.723000", "113352.726000", "113352.728000", "113352.731000", "113352.733000", "113352.736000", "113352.738000", "113352.741000", "113352.743000", "113352.746000", "113352.748000", "113352.751000", "113352.753000", "113352.755000", "113352.758000", "113412.157000", "113412.159000", "113412.162000", "113412.164000", "113412.167000", "113412.169000", "113412.172000", "113412.174000", "113412.176000", "113412.179000", "113412.181000", "113412.184000", "113412.186000", "113412.189000", "113412.191000", "113412.194000", "113412.196000", "113412.198000", "113412.201000", "113412.203000", "113432.172000", "113432.175000", "113432.177000", "113432.180000", "113432.182000", "113432.185000", "113432.187000", "113432.189000", "113432.192000", "113432.194000", "113432.197000", "113432.199000", "113432.202000", "113432.204000", "113432.207000", "113432.209000", "113432.211000", "113432.214000", "113432.216000", "113432.219000", "113512.197000", "113512.200000", "113512.202000", "113512.205000", "113512.207000", "113512.210000", "113512.212000", "113512.215000", "113512.217000", "113512.220000", "113512.222000", "113512.224000", "113512.227000", "113512.229000", "113512.232000", "113512.234000", "113512.237000", "113512.239000", "113512.241000", "113512.244000", "113512.246000", "113512.249000", "113512.251000", "113512.254000", "113512.256000", "113512.259000", "113512.261000", "113552.193000", "113552.196000", "113552.198000", "113552.200000", "113552.203000", "113552.205000", "113552.208000", "113552.210000", "113552.213000", "113552.215000", "113552.218000", "113552.220000", "113552.222000", "113552.225000", "113552.227000", "113552.230000", "113552.232000", "113552.235000", "113552.237000", "113552.240000", "113552.242000", "113552.245000", "113552.247000", "113552.250000", "113552.252000", "113552.254000", "113552.257000", "113632.189000", "113632.192000", "113632.194000", "113632.197000", "113632.199000", "113632.202000", "113632.204000", "113632.207000", "113632.209000", "113632.211000", "113632.214000", "113632.216000", "113632.219000", "113632.222000", "113632.224000", "113632.226000", "113632.229000", "113632.231000", "113632.234000", "113632.237000", "113632.239000", "113632.242000", "113632.244000", "113632.247000", "113632.249000", "113632.252000", "113712.191000", "113712.194000", "113712.205000", "113712.207000", "113712.210000", "113712.212000", "113712.214000", "113712.217000", "113712.219000", "113712.222000", "113712.224000", "113712.227000", "113712.229000", "113712.232000", "113712.234000", "113712.237000", "113712.239000", "113712.241000", "113712.244000", "113712.246000", "113712.249000", "113712.251000", "113712.254000", "113712.256000", "113712.259000", "113712.261000", "113712.264000", "113752.194000", "113752.196000", "113752.199000", "113752.201000", "113752.204000", "113752.206000", "113752.209000", "113752.211000", "113752.214000", "113752.216000", "113752.219000", "113752.221000", "113752.223000", "113752.226000", "113752.228000", "113752.231000", "113752.233000", "113752.236000", "113752.238000", "113752.241000", "113752.243000", "113752.246000", "113752.248000", "113752.251000", "113752.253000", "113752.256000", "113752.258000", "113832.184000", "113832.187000", "113832.189000", "113832.192000", "113832.195000", "113832.197000", "113832.200000", "113832.202000", "113832.205000", "113832.207000", "113832.210000", "113832.212000", "113832.215000", "113832.217000", "113832.219000", "113832.222000", "113832.225000", "113832.227000", "113832.229000", "113832.232000", "113832.234000", "113832.237000", "113832.239000", "113832.242000", "113832.245000", "113832.247000", "113832.249000", "113912.192000", "113912.195000", "113912.197000", "113912.200000", "113912.202000", "113912.204000", "113912.207000", "113912.209000", "113912.212000", "113912.214000", "113912.222000", "113912.224000", "113912.227000", "113912.229000", "113912.232000", "113912.234000", "113912.237000", "113912.239000", "113912.242000", "113912.244000", "113912.247000", "113912.249000", "113912.251000", "113912.254000", "113912.256000", "113912.259000", "113912.261000", "113952.201000", "113952.204000", "113952.206000", "113952.208000", "113952.211000", "113952.213000", "113952.216000", "113952.218000", "113952.221000", "113952.223000", "113952.226000", "113952.228000", "113952.231000", "113952.233000", "113952.236000", "113952.238000", "113952.241000", "113952.243000", "113952.245000", "113952.248000", "113952.250000", "113952.253000", "113952.255000", "113952.258000", "113952.260000", "113952.263000", "113952.265000", "114032.192000", "114032.194000", "114032.197000", "114032.199000", "114032.202000", "114032.204000", "114032.207000", "114032.209000", "114032.212000", "114032.214000", "114032.216000", "114032.219000", "114032.221000", "114032.224000", "114032.226000", "114032.229000", "114032.231000", "114032.234000", "114032.236000", "114032.239000", "114032.241000", "114032.243000", "114032.246000", "114032.248000", "114032.251000", "114032.253000", "114037.341000", "114037.344000", "114037.347000", "114037.349000"],
      "InstanceNumber": [1, 2, 3, 4, 5, 6, 7, 8, 9, 10, 11, 12, 13, 14, 15, 16, 17, 18, 19, 20, 21, 22, 23, 24, 25, 26, 27, 28, 29, 30, 31, 32, 33, 34, 35, 36, 37, 38, 39, 40, 41, 42, 43, 44, 45, 46, 47, 48, 49, 50, 51, 52, 53, 54, 55, 56, 57, 58, 59, 60, 61, 62, 63, 64, 65, 66, 67, 68, 69, 70, 71, 72, 73, 74, 75, 76, 77, 78, 79, 80, 81, 82, 83, 84, 85, 86, 87, 88, 89, 90, 91, 92, 93, 94, 95, 96, 97, 98, 99, 100, 101, 102, 103, 104, 105, 106, 107, 108, 109, 110, 111, 112, 113, 114, 115, 116, 117, 118, 119, 120, 121, 122, 123, 124, 125, 126, 127, 128, 129, 130, 131, 132, 133, 134, 135, 136, 137, 138, 139, 140, 141, 142, 143, 144, 145, 146, 147, 148, 149, 150, 151, 152, 153, 154, 155, 156, 157, 158, 159, 160, 161, 162, 163, 164, 165, 166, 167, 168, 169, 170, 171, 172, 173, 174, 175, 176, 177, 178, 179, 180, 181, 182, 183, 184, 185, 186, 187, 188, 189, 190, 191, 192, 193, 194, 195, 196, 197, 198, 199, 200, 201, 202, 203, 204, 205, 206, 207, 208, 209, 210, 211, 212, 213, 214, 215, 216, 217, 218, 219, 220, 221, 222, 223, 224, 225, 226, 227, 228, 229, 230, 231, 232, 233, 234, 235, 236, 237, 238, 239, 240, 241, 242, 243, 244, 245, 246, 247, 248, 249, 250, 251, 252, 253, 254, 255, 256, 257, 258, 259, 260, 261, 262, 263, 264, 265, 266, 267, 268, 269, 270, 271, 272, 273, 274, 275, 276, 277, 278, 279, 280, 281, 282, 283, 284, 285, 286, 287, 288, 289, 290, 291, 292, 293, 294, 295, 296, 297, 298, 299, 300, 301, 302, 303, 304, 305, 306, 307, 308, 309, 310, 311, 312, 313, 314, 315, 316, 317, 318, 319, 320, 321, 322, 323, 324, 325, 326, 327, 328, 329, 330, 331, 332, 333, 334, 335, 336, 337, 338, 339, 340, 341, 342, 343, 344, 345, 346, 347],
      "WindowCenter": [4806.0, 4834.0, 4834.0, 4832.0, 4830.0, 4828.0, 4824.0, 4828.0, 4804.0, 4806.0, 4804.0, 4802.0, 4802.0, 4804.0, 4832.0, 4838.0, 4862.0, 4836.0, 4832.0, 4804.0, 4808.0, 4806.0, 4782.0, 4810.0, 4840.0, 4846.0, 4864.0, 4840.0, 4838.0, 4838.0, 4836.0, 4834.0, 4804.0, 4804.0, 4810.0, 4834.0, 4836.0, 4836.0, 4840.0, 4842.0, 4838.0, 4836.0, 4832.0, 4832.0, 4810.0, 4810.0, 4836.0, 4836.0, 4838.0, 4842.0, 4842.0, 4840.0, 4812.0, 4834.0, 4836.0, 4838.0, 4838.0, 4836.0, 4840.0, 4838.0, 4838.0, 4838.0, 4838.0, 4838.0, 4838.0, 4838.0, 4840.0, 4836.0, 4836.0, 4836.0, 4836.0, 4836.0, 4838.0, 4838.0, 4836.0, 4842.0, 4840.0, 4812.0, 4838.0, 4840.0, 4838.0, 4840.0, 4836.0, 4838.0, 4842.0, 4838.0, 4840.0, 4836.0, 4840.0, 4838.0, 4836.0, 4838.0, 4840.0, 4840.0, 4840.0, 4836.0, 4840.0, 4836.0, 4840.0, 4842.0, 4836.0, 4840.0, 4842.0, 4838.0, 4836.0, 4840.0, 4838.0, 4840.0, 4840.0, 4840.0, 4842.0, 4840.0, 4842.0, 4840.0, 4844.0, 4840.0, 4840.0, 4840.0, 4838.0, 4844.0, 4840.0, 4840.0, 4840.0, 4838.0, 4842.0, 4842.0, 4840.0, 4838.0, 4836.0, 4836.0, 4842.0, 4834.0, 4838.0, 4838.0, 4840.0, 4838.0, 4838.0, 4838.0, 4838.0, 4842.0, 4838.0, 4840.0, 4840.0, 4836.0, 4844.0, 4838.0, 4840.0, 4840.0, 4838.0, 4840.0, 4842.0, 4842.0, 4842.0, 4838.0, 4836.0, 4836.0, 4838.0, 4840.0, 4834.0, 4836.0, 4836.0, 4838.0, 4838.0, 4842.0, 4840.0, 4840.0, 4840.0, 4838.0, 4834.0, 4840.0, 4836.0, 4846.0, 4842.0, 4810.0, 4808.0, 4832.0, 4838.0, 4840.0, 4840.0, 4838.0, 4842.0, 4838.0, 4836.0, 4838.0, 4838.0, 4838.0, 4838.0, 4838.0, 4838.0, 4840.0, 4832.0, 4836.0, 4834.0, 4836.0, 4836.0, 4836.0, 4836.0, 4834.0, 4836.0, 4834.0, 4836.0, 4832.0, 4838.0, 4840.0, 4836.0, 4834.0, 4834.0, 4834.0, 4838.0, 4840.0, 4838.0, 4836.0, 4838.0, 4840.0, 4840.0, 4842.0, 4836.0, 4836.0, 4808.0, 4808.0, 4836.0, 4836.0, 4836.0, 4836.0, 4834.0, 4832.0, 4834.0, 4832.0, 4836.0, 4830.0, 4834.0, 4832.0, 4834.0, 4832.0, 4836.0, 4834.0, 4838.0, 4836.0, 4838.0, 4834.0, 4834.0, 4836.0, 4838.0, 4834.0, 4836.0, 4832.0, 4830.0, 4834.0, 4834.0, 4830.0, 4832.0, 4836.0, 4836.0, 4830.0, 4834.0, 4832.0, 4834.0, 4834.0, 4836.0, 4838.0, 4832.0, 4838.0, 4836.0, 4832.0, 4836.0, 4838.0, 4834.0, 4838.0, 4834.0, 4836.0, 4836.0, 4810.0, 4836.0, 4830.0, 4834.0, 4836.0, 4836.0, 4834.0, 4834.0, 4838.0, 4834.0, 4810.0, 4838.0, 4834.0, 4836.0, 4834.0, 4836.0, 4834.0, 4836.0, 4838.0, 4834.0, 4834.0, 4830.0, 4830.0, 4838.0, 4834.0, 4840.0, 4834.0, 4840.0, 4834.0, 4834.0, 4810.0, 4806.0, 4834.0, 4836.0, 4838.0, 4836.0, 4838.0, 4838.0, 4836.0, 4834.0, 4838.0, 4842.0, 4810.0, 4804.0, 4806.0, 4828.0, 4830.0, 4832.0, 4836.0, 4836.0, 4808.0, 4810.0, 4830.0, 4836.0, 4832.0, 4834.0, 4800.0, 4830.0, 4836.0, 4834.0, 4834.0, 4808.0, 4834.0, 4832.0, 4808.0, 4806.0, 4834.0, 4834.0, 4830.0, 4812.0, 4834.0, 4836.0, 4832.0, 4804.0, 4828.0, 4832.0],
