{
  "AcquisitionMatrixPE": 104,
  "AcquisitionNumber": 1,
  "AcquisitionTime": "11:26:9.187500",
  "BandwidthPerPixelPhaseEncode": 17.17,
  "BaseResolution": 104,
  "BodyPartExamined": "BRAIN",
  "CoilCombinationMethod": "Sum of Squares",
  "ConsistencyInfo": "N4_VE11C_LATEST_20160120",
  "ConversionSoftware": "dcm2niix",
  "ConversionSoftwareVersion": "v1.0.20220505",
  "DerivedVendorReportedEchoSpacing": 0.000560011,
  "DeviceSerialNumber": "167006",
  "DwellTime": 2.1e-06,
  "EchoTime": 0.037,
  "EchoTime1": 0.037,
  "EchoTime2": 0.001,
  "EchoTrainLength": 104,
  "EffectiveEchoSpacing": 0.000560011,
  "FlipAngle": 52,
  "HeudiconvVersion": "0.5.3.post811+g6206e14",
  "ImageComments": "Unaliased MB4/PE3/LB",
  "ImageOrientationPatientDICOM": [0.997212, 0.0722078, 0.0188308, -0.0601187, 0.926881, -0.370509],
  "ImageOrientationText": "Tra>Cor(-21.6)>Sag(2.5)",
  "ImageType": [
    "ORIGINAL",
    "PRIMARY",
    "P",
    "MB",
    "ND",
    "MOSAIC",
    "PHASE"
],
  "ImagingFrequency": 123.26,
  "InPlanePhaseEncodingDirectionDICOM": "COL",
  "InstitutionAddress": "Chemin Queen-Mary 4565,Montreal,District,CA,H3W 1W5",
  "InstitutionName": "IUGM",
  "InstitutionalDepartmentName": "Department",
  "MRAcquisitionType": "2D",
  "MagneticFieldStrength": 3,
  "Manufacturer": "Siemens",
  "ManufacturersModelName": "Prisma_fit",
  "MatrixCoilMode": "SENSE",
  "Modality": "MR",
  "MultibandAccelerationFactor": 4,
  "PartialFourier": 1,
  "PatientPosition": "HFS",
  "PercentPhaseFOV": 100,
  "PercentSampling": 100,
  "PhaseEncodingDirection": "j",
  "PhaseEncodingSteps": 104,
  "PhaseResolution": 1,
  "PixelBandwidth": 2290,
  "ProcedureStepDescription": "games^mario3",
  "ProtocolName": "func_task-mario3_run-01",
  "PulseSequenceDetails": "%CustomerSeq%\\cmrr_mbep2d_bold",
  "ReceiveCoilActiveElements": "HC1-7;NC1,2",
  "ReceiveCoilName": "HeadNeck_64",
  "ReconMatrixPE": 104,
  "RepetitionTime": 1.49,
  "SAR": 0.048271,
  "ScanOptions": "FS",
  "ScanningSequence": "EP",
  "SequenceName": "epfid2d1_104",
  "SequenceVariant": "SK\\SS",
  "SeriesDescription": "func_task-mario3_run-01",
  "SeriesNumber": 11,
  "ShimSetting": [616, -7191, -8816, 621, 85, 13, -89, 6],
  "SliceThickness": 2,
  "SliceTiming": [0, 0.785, 0.0975, 0.8825, 0.195, 0.98, 0.295, 1.0775, 0.3925, 1.175, 0.49, 1.275, 0.5875, 1.3725, 0.685, 0, 0.785, 0.0975, 0.8825, 0.195, 0.98, 0.295, 1.0775, 0.3925, 1.175, 0.49, 1.275, 0.5875, 1.3725, 0.685, 0, 0.785, 0.0975, 0.8825, 0.195, 0.98, 0.295, 1.0775, 0.3925, 1.175, 0.49, 1.275, 0.5875, 1.3725, 0.685, 0, 0.785, 0.0975, 0.8825, 0.195, 0.98, 0.295, 1.0775, 0.3925, 1.175, 0.49, 1.275, 0.5875, 1.3725, 0.685],
  "SoftwareVersions": "syngo MR E11",
  "SpacingBetweenSlices": 2,
  "StationName": "MRC35049",
  "TaskName": "mario3",
  "TotalReadoutTime": 0.0576811,
  "TxRefAmp": 251.672,
  "WipMemBlock": "ff0ba45d-999c-42c8-8c61-af4f5da5d093||Sequence: R017 ve11c/master r/75a17815+; Jun 28 2022 16:32:11 by eja",
  "dcmmeta_affine": [
    [-1.9944236278533936, -0.12023738026618958, 0.08841511607170105, 110.22505187988281],
    [-0.14441557228565216, 1.8537627458572388, -0.7366868853569031, -51.403167724609375],
    [0.03766167536377907, 0.7410171627998352, 1.857276201248169, -60.37505340576172],
    [0.0, 0.0, 0.0, 1.0]
],
  "dcmmeta_reorient_transform": [
    [0.0, -1.0, 0.0, 103.0],
    [1.0, 0.0, 0.0, 0.0],
    [0.0, 0.0, 1.0, 0.0],
    [0.0, 0.0, 0.0, 1.0]
],
  "dcmmeta_shape": [104, 104, 60, 125],
  "dcmmeta_slice_dim": 2,
  "dcmmeta_version": 0.6,
  "global": {
    "const": {
      "AcquisitionMatrix": [104, 0, 0, 104],
      "AngioFlag": "N",
      "BitsAllocated": 16,
      "BitsStored": 16,
      "BodyPartExamined": "BRAIN",
      "Columns": 832,
      "EchoNumbers": 1,
      "EchoTime": 37.0,
      "EchoTrainLength": 104,
      "FlipAngle": 52.0,
      "HighBit": 15,
      "ImageOrientationPatient": [0.99721183053766, 0.07220778752643, 0.01883083790678, -0.0601186893746, 0.926881402049, -0.3705085825235],
      "ImagePositionPatient": [-780.04440599405, -866.8713294145, 271.97111240293],
      "ImageType": [
        "ORIGINAL",
        "PRIMARY",
        "P",
        "MB",
        "ND",
        "MOSAIC"
],
      "ImagedNucleus": "1H",
      "ImagingFrequency": 123.260418,
      "InPlanePhaseEncodingDirection": "COL",
      "LargestImagePixelValue": 4095,
      "MRAcquisitionType": "2D",
      "MagneticFieldStrength": 3.0,
      "Manufacturer": "SIEMENS",
      "ManufacturerModelName": "Prisma_fit",
      "Modality": "MR",
      "NumberOfAverages": 1.0,
      "NumberOfPhaseEncodingSteps": 104,
      "PercentPhaseFieldOfView": 100.0,
      "PercentSampling": 100.0,
      "PerformedProcedureStepStartTime": "112255.108000",
      "PhotometricInterpretation": "MONOCHROME2",
      "PixelBandwidth": 2290.0,
      "PixelRepresentation": 0,
      "PixelSpacing": [2.0, 2.0],
      "ProtocolName": "func_task-mario3_run-01",
      "RepetitionTime": 1490.0,
      "RescaleIntercept": -4096.0,
      "RescaleSlope": 2.0,
      "RescaleType": "US",
      "Rows": 832,
      "SAR": 0.04827104529496,
      "SamplesPerPixel": 1,
      "ScanOptions": "FS",
      "ScanningSequence": "EP",
      "SequenceName": "epfid2d1_104",
      "SequenceVariant": [
        "SK",
        "SS"
],
      "SeriesDescription": "func_task-mario3_run-01",
      "SeriesNumber": 11,
      "SeriesTime": "112720.816000",
      "SliceLocation": -32.259775973793,
      "SliceThickness": 2.0,
      "SmallestImagePixelValue": 0,
      "SoftwareVersions": "syngo MR E11",
      "SpacingBetweenSlices": 1.9999999815687,
      "SpecificCharacterSet": "ISO_IR 100",
      "StudyID": "1",
      "StudyTime": "112255.030000",
      "TransmitCoilName": "Body",
      "VariableFlipAngleFlag": "N",
      "WindowCenterWidthExplanation": "Algo1",
      "dBdt": 0.0},
    "slices": {}
  },
  "time": {
    "samples": {
      "AcquisitionNumber": [1, 2, 3, 4, 5, 6, 7, 8, 9, 10, 11, 12, 13, 14, 15, 16, 17, 18, 19, 20, 21, 22, 23, 24, 25, 26, 27, 28, 29, 30, 31, 32, 33, 34, 35, 36, 37, 38, 39, 40, 41, 42, 43, 44, 45, 46, 47, 48, 49, 50, 51, 52, 53, 54, 55, 56, 57, 58, 59, 60, 61, 62, 63, 64, 65, 66, 67, 68, 69, 70, 71, 72, 73, 74, 75, 76, 77, 78, 79, 80, 81, 82, 83, 84, 85, 86, 87, 88, 89, 90, 91, 92, 93, 94, 95, 96, 97, 98, 99, 100, 101, 102, 103, 104, 105, 106, 107, 108, 109, 110, 111, 112, 113, 114, 115, 116, 117, 118, 119, 120, 121, 122, 123, 124, 125],
      "AcquisitionTime": ["112609.187500", "112610.677500", "112612.167500", "112613.657500", "112615.147500", "112616.637500", "112618.127500", "112619.617500", "112621.107500", "112622.597500", "112624.087500", "112625.577500", "112627.067500", "112628.557500", "112630.047500", "112631.537500", "112633.027500", "112634.517500", "112636.007500", "112637.497500", "112638.987500", "112640.477500", "112641.967500", "112643.457500", "112644.947500", "112646.437500", "112647.927500", "112649.417500", "112650.907500", "112652.397500", "112653.887500", "112655.377500", "112656.867500", "112658.357500", "112659.847500", "112701.337500", "112702.827500", "112704.317500", "112705.807500", "112707.297500", "112708.787500", "112710.277500", "112711.767500", "112713.257500", "112714.747500", "112716.237500", "112717.727500", "112719.217500", "112720.707500", "112722.197500", "112723.687500", "112725.177500", "112726.667500", "112728.157500", "112729.647500", "112731.137500", "112732.627500", "112734.117500", "112735.607500", "112737.097500", "112738.587500", "112740.077500", "112741.567500", "112743.057500", "112744.547500", "112746.037500", "112747.527500", "112749.017500", "112750.507500", "112751.997500", "112753.487500", "112754.977500", "112756.467500", "112757.957500", "112759.447500", "112800.937500", "112802.427500", "112803.917500", "112805.407500", "112806.897500", "112808.387500", "112809.877500", "112811.367500", "112812.857500", "112814.347500", "112815.837500", "112817.327500", "112818.817500", "112820.307500", "112821.797500", "112823.287500", "112824.777500", "112826.267500", "112827.757500", "112829.247500", "112830.737500", "112832.227500", "112833.717500", "112835.207500", "112836.697500", "112838.187500", "112839.677500", "112841.167500", "112842.657500", "112844.147500", "112845.637500", "112847.127500", "112848.617500", "112850.107500", "112851.597500", "112853.087500", "112854.577500", "112856.067500", "112857.557500", "112859.047500", "112900.537500", "112902.027500", "112903.517500", "112905.007500", "112906.497500", "112907.987500", "112909.477500", "112910.967500", "112912.457500", "112913.947500"],
      "ContentTime": ["112720.818000", "112720.821000", "112720.823000", "112720.825000", "112720.828000", "112720.830000", "112720.833000", "112720.835000", "112720.838000", "112720.840000", "112720.843000", "112720.845000", "112720.847000", "112720.850000", "112720.852000", "112720.855000", "112720.857000", "112720.860000", "112720.862000", "112720.864000", "112720.867000", "112720.869000", "112720.872000", "112740.742000", "112740.744000", "112740.747000", "112740.749000", "112740.752000", "112740.754000", "112740.757000", "112740.759000", "112740.762000", "112740.764000", "112740.767000", "112740.769000", "112740.771000", "112740.774000", "112740.776000", "112740.779000", "112740.781000", "112740.784000", "112740.786000", "112740.788000", "112800.763000", "112800.766000", "112800.768000", "112800.771000", "112800.773000", "112800.775000", "112800.778000", "112800.780000", "112800.783000", "112800.786000", "112800.788000", "112800.791000", "112800.793000", "112800.796000", "112800.798000", "112800.801000", "112800.803000", "112800.805000", "112800.808000", "112800.810000", "112820.745000", "112820.748000", "112820.750000", "112820.753000", "112820.755000", "112820.757000", "112820.760000", "112820.762000", "112820.765000", "112820.767000", "112820.769000", "112820.772000", "112820.774000", "112820.777000", "112820.779000", "112820.782000", "112820.784000", "112820.787000", "112820.789000", "112820.792000", "112900.782000", "112900.785000", "112900.787000", "112900.789000", "112900.792000", "112900.794000", "112900.797000", "112900.799000", "112900.802000", "112900.804000", "112900.807000", "112900.809000", "112900.812000", "112900.814000", "112900.816000", "112900.819000", "112900.821000", "112900.824000", "112900.826000", "112900.829000", "112900.831000", "112900.834000", "112900.836000", "112900.839000", "112900.841000", "112900.844000", "112900.846000", "112900.849000", "112900.851000", "112900.854000", "112900.856000", "112917.369000", "112917.371000", "112917.374000", "112917.376000", "112917.379000", "112917.381000", "112917.384000", "112917.386000", "112917.389000", "112917.391000", "112917.394000"],
      "InstanceCreationTime": ["112720.818000", "112720.821000", "112720.823000", "112720.825000", "112720.828000", "112720.830000", "112720.833000", "112720.835000", "112720.838000", "112720.840000", "112720.843000", "112720.845000", "112720.847000", "112720.850000", "112720.852000", "112720.855000", "112720.857000", "112720.860000", "112720.862000", "112720.864000", "112720.867000", "112720.869000", "112720.872000", "112740.742000", "112740.744000", "112740.747000", "112740.749000", "112740.752000", "112740.754000", "112740.757000", "112740.759000", "112740.762000", "112740.764000", "112740.767000", "112740.769000", "112740.771000", "112740.774000", "112740.776000", "112740.779000", "112740.781000", "112740.784000", "112740.786000", "112740.788000", "112800.763000", "112800.766000", "112800.768000", "112800.771000", "112800.773000", "112800.775000", "112800.778000", "112800.780000", "112800.783000", "112800.786000", "112800.788000", "112800.791000", "112800.793000", "112800.796000", "112800.798000", "112800.801000", "112800.803000", "112800.805000", "112800.808000", "112800.810000", "112820.745000", "112820.748000", "112820.750000", "112820.753000", "112820.755000", "112820.757000", "112820.760000", "112820.762000", "112820.765000", "112820.767000", "112820.769000", "112820.772000", "112820.774000", "112820.777000", "112820.779000", "112820.782000", "112820.784000", "112820.787000", "112820.789000", "112820.792000", "112900.782000", "112900.785000", "112900.787000", "112900.789000", "112900.792000", "112900.794000", "112900.797000", "112900.799000", "112900.802000", "112900.804000", "112900.807000", "112900.809000", "112900.812000", "112900.814000", "112900.816000", "112900.819000", "112900.821000", "112900.824000", "112900.826000", "112900.829000", "112900.831000", "112900.834000", "112900.836000", "112900.839000", "112900.841000", "112900.844000", "112900.846000", "112900.849000", "112900.851000", "112900.854000", "112900.856000", "112917.369000", "112917.371000", "112917.374000", "112917.376000", "112917.379000", "112917.381000", "112917.384000", "112917.386000", "112917.389000", "112917.391000", "112917.394000"],
      "InstanceNumber": [1, 2, 3, 4, 5, 6, 7, 8, 9, 10, 11, 12, 13, 14, 15, 16, 17, 18, 19, 20, 21, 22, 23, 24, 25, 26, 27, 28, 29, 30, 31, 32, 33, 34, 35, 36, 37, 38, 39, 40, 41, 42, 43, 44, 45, 46, 47, 48, 49, 50, 51, 52, 53, 54, 55, 56, 57, 58, 59, 60, 61, 62, 63, 64, 65, 66, 67, 68, 69, 70, 71, 72, 73, 74, 75, 76, 77, 78, 79, 80, 81, 82, 83, 84, 85, 86, 87, 88, 89, 90, 91, 92, 93, 94, 95, 96, 97, 98, 99, 100, 101, 102, 103, 104, 105, 106, 107, 108, 109, 110, 111, 112, 113, 114, 115, 116, 117, 118, 119, 120, 121, 122, 123, 124, 125],
      "WindowCenter": [4832.0, 4834.0, 4834.0, 4834.0, 4836.0, 4836.0, 4836.0, 4836.0, 4836.0, 4836.0, 4840.0, 4838.0, 4836.0, 4838.0, 4838.0, 4838.0, 4838.0, 4838.0, 4838.0, 4840.0, 4836.0, 4840.0, 4836.0, 4844.0, 4840.0, 4838.0, 4836.0, 4842.0, 4840.0, 4842.0, 4840.0, 4844.0, 4840.0, 4836.0, 4838.0, 4844.0, 4840.0, 4838.0, 4840.0, 4838.0, 4838.0, 4842.0, 4840.0, 4840.0, 4840.0, 4842.0, 4840.0, 4840.0, 4844.0, 4842.0, 4844.0, 4838.0, 4836.0, 4844.0, 4838.0, 4838.0, 4842.0, 4842.0, 4842.0, 4844.0, 4840.0, 4866.0, 4840.0, 4838.0, 4840.0, 4842.0, 4844.0, 4842.0, 4842.0, 4840.0, 4842.0, 4842.0, 4840.0, 4842.0, 4842.0, 4840.0, 4842.0, 4844.0, 4842.0, 4846.0, 4844.0, 4842.0, 4842.0, 4842.0, 4838.0, 4840.0, 4842.0, 4842.0, 4842.0, 4844.0, 4840.0, 4842.0, 4844.0, 4844.0, 4842.0, 4842.0, 4846.0, 4842.0, 4842.0, 4864.0, 4844.0, 4840.0, 4840.0, 4842.0, 4844.0, 4844.0, 4840.0, 4840.0, 4842.0, 4840.0, 4842.0, 4842.0, 4840.0, 4844.0, 4840.0, 4842.0, 4842.0, 4844.0, 4866.0, 4846.0, 4846.0, 4846.0, 4840.0, 4812.0, 4838.0],
      "WindowWidth": [18644.0, 18648.0, 18650.0, 18652.0, 18650.0, 18650.0, 18650.0, 18652.0, 18658.0, 18652.0, 18656.0, 18652.0, 18652.0, 18654.0, 18654.0, 18656.0, 18654.0, 18652.0, 18650.0, 18654.0, 18650.0, 18652.0, 18652.0, 18660.0, 18654.0, 18652.0, 18650.0, 18652.0, 18654.0, 18656.0, 18654.0, 18656.0, 18654.0, 18654.0, 18654.0, 18660.0, 18654.0, 18656.0, 18654.0, 18656.0, 18658.0, 18652.0, 18656.0, 18652.0, 18656.0, 18662.0, 18662.0, 18658.0, 18658.0, 18656.0, 18656.0, 18656.0, 18654.0, 18662.0, 18654.0, 18656.0, 18656.0, 18652.0, 18654.0, 18662.0, 18658.0, 18688.0, 18654.0, 18654.0, 18656.0, 18662.0, 18658.0, 18654.0, 18656.0, 18658.0, 18656.0, 18656.0, 18656.0, 18658.0, 18656.0, 18658.0, 18656.0, 18660.0, 18654.0, 18658.0, 18658.0, 18662.0, 18656.0, 18658.0, 18654.0, 18654.0, 18658.0, 18658.0, 18656.0, 18660.0, 18652.0, 18660.0, 18662.0, 18658.0, 18654.0, 18658.0, 18660.0, 18654.0, 18656.0, 18690.0, 18656.0, 18658.0, 18656.0, 18658.0, 18662.0, 18658.0, 18660.0, 18656.0, 18658.0, 18652.0, 18656.0, 18656.0, 18654.0, 18660.0, 18652.0, 18662.0, 18654.0, 18652.0, 18686.0, 18648.0, 18624.0, 18634.0, 18632.0, 18600.0, 18640.0]
    },
    "slices": {}
  }
}