{
  "AcquisitionMatrixPE": 104,
  "AcquisitionNumber": 1,
  "AcquisitionTime": "11:53:29.407500",
  "BandwidthPerPixelPhaseEncode": 17.17,
  "BaseResolution": 104,
  "BodyPartExamined": "BRAIN",
  "CoilCombinationMethod": "Sum of Squares",
  "ConsistencyInfo": "N4_VE11C_LATEST_20160120",
  "ConversionSoftware": "dcm2niix",
  "ConversionSoftwareVersion": "v1.0.20220505",
  "DerivedVendorReportedEchoSpacing": 0.000560011,
  "DeviceSerialNumber": "167006",
  "DwellTime": 2.1e-06,
  "EchoTime": 0.037,
  "EchoTrainLength": 104,
  "EffectiveEchoSpacing": 0.000560011,
  "FlipAngle": 52,
  "HeudiconvVersion": "0.5.3.post811+g6206e14",
  "ImageComments": "Unaliased MB4/PE3/LB",
  "ImageOrientationPatientDICOM": [0.997212, 0.0722078, 0.0188308, -0.0601187, 0.926881, -0.370509],
  "ImageOrientationText": "Tra>Cor(-21.6)>Sag(2.5)",
  "ImageType": [
    "ORIGINAL",
    "PRIMARY",
    "M",
    "MB",
    "ND",
    "MOSAIC"
],
  "ImagingFrequency": 123.26,
  "InPlanePhaseEncodingDirectionDICOM": "COL",
  "InstitutionAddress": "Chemin Queen-Mary 4565,Montreal,District,CA,H3W 1W5",
  "InstitutionName": "IUGM",
  "InstitutionalDepartmentName": "Department",
  "MRAcquisitionType": "2D",
  "MagneticFieldStrength": 3,
  "Manufacturer": "Siemens",
  "ManufacturersModelName": "Prisma_fit",
  "MatrixCoilMode": "SENSE",
  "Modality": "MR",
  "MultibandAccelerationFactor": 4,
  "PartialFourier": 1,
  "PatientPosition": "HFS",
  "PercentPhaseFOV": 100,
  "PercentSampling": 100,
  "PhaseEncodingDirection": "j",
  "PhaseEncodingSteps": 104,
  "PhaseResolution": 1,
  "PixelBandwidth": 2290,
  "ProcedureStepDescription": "games^mario3",
  "ProtocolName": "func_task-mario3_run-03",
  "PulseSequenceDetails": "%CustomerSeq%\\cmrr_mbep2d_bold",
  "ReceiveCoilActiveElements": "HC1-7;NC1,2",
  "ReceiveCoilName": "HeadNeck_64",
  "ReconMatrixPE": 104,
  "RepetitionTime": 1.49,
  "SAR": 0.048271,
  "ScanOptions": "FS",
  "ScanningSequence": "EP",
  "SequenceName": "epfid2d1_104",
  "SequenceVariant": "SK\\SS",
  "SeriesDescription": "func_task-mario3_run-03",
  "SeriesNumber": 19,
  "ShimSetting": [616, -7191, -8816, 621, 85, 13, -89, 6],
  "SliceThickness": 2,
  "SliceTiming": [0, 0.785, 0.0975, 0.8825, 0.195, 0.98, 0.295, 1.0775, 0.3925, 1.175, 0.49, 1.275, 0.5875, 1.3725, 0.685, 0, 0.785, 0.0975, 0.8825, 0.195, 0.98, 0.295, 1.0775, 0.3925, 1.175, 0.49, 1.275, 0.5875, 1.3725, 0.685, 0, 0.785, 0.0975, 0.8825, 0.195, 0.98, 0.295, 1.0775, 0.3925, 1.175, 0.49, 1.275, 0.5875, 1.3725, 0.685, 0, 0.785, 0.0975, 0.8825, 0.195, 0.98, 0.295, 1.0775, 0.3925, 1.175, 0.49, 1.275, 0.5875, 1.3725, 0.685],
  "SoftwareVersions": "syngo MR E11",
  "SpacingBetweenSlices": 2,
  "StationName": "MRC35049",
  "TaskName": "mario3",
  "TotalReadoutTime": 0.0576811,
  "TxRefAmp": 251.672,
  "WipMemBlock": "75c509b6-e70f-4ded-b267-836753630ce1||Sequence: R017 ve11c/master r/75a17815+; Jun 28 2022 16:32:11 by eja",
  "dcmmeta_affine": [
    [-1.9944236278533936, -0.12023738026618958, 0.08841511607170105, 110.22505187988281],
    [-0.14441557228565216, 1.8537627458572388, -0.7366868853569031, -51.403167724609375],
    [0.03766167536377907, 0.7410171627998352, 1.857276201248169, -60.37505340576172],
    [0.0, 0.0, 0.0, 1.0]
],
  "dcmmeta_reorient_transform": [
    [0.0, -1.0, 0.0, 103.0],
    [1.0, 0.0, 0.0, 0.0],
    [0.0, 0.0, 1.0, 0.0],
    [0.0, 0.0, 0.0, 1.0]
],
  "dcmmeta_shape": [104, 104, 60, 324],
  "dcmmeta_slice_dim": 2,
  "dcmmeta_version": 0.6,
  "global": {
    "const": {
      "AcquisitionMatrix": [104, 0, 0, 104],
      "AngioFlag": "N",
      "BitsAllocated": 16,
      "BitsStored": 16,
      "BodyPartExamined": "BRAIN",
      "Columns": 832,
      "EchoNumbers": 1,
      "EchoTime": 37.0,
      "EchoTrainLength": 104,
      "FlipAngle": 52.0,
      "HighBit": 15,
      "ImageOrientationPatient": [0.99721183053766, 0.07220778752643, 0.01883083790678, -0.0601186893746, 0.926881402049, -0.3705085825235],
      "ImagePositionPatient": [-780.04440599405, -866.8713294145, 271.97111240293],
      "ImageType": [
        "ORIGINAL",
        "PRIMARY",
        "M",
        "MB",
        "ND",
        "MOSAIC"
],
      "ImagedNucleus": "1H",
      "ImagingFrequency": 123.260428,
      "InPlanePhaseEncodingDirection": "COL",
      "MRAcquisitionType": "2D",
      "MagneticFieldStrength": 3.0,
      "Manufacturer": "SIEMENS",
      "ManufacturerModelName": "Prisma_fit",
      "Modality": "MR",
      "NumberOfAverages": 1.0,
      "NumberOfPhaseEncodingSteps": 104,
      "PercentPhaseFieldOfView": 100.0,
      "PercentSampling": 100.0,
      "PerformedProcedureStepStartTime": "112255.108000",
      "PhotometricInterpretation": "MONOCHROME2",
      "PixelBandwidth": 2290.0,
      "PixelRepresentation": 0,
      "PixelSpacing": [2.0, 2.0],
      "ProtocolName": "func_task-mario3_run-03",
      "RepetitionTime": 1490.0,
      "Rows": 832,
      "SAR": 0.04827104529496,
      "SamplesPerPixel": 1,
      "ScanOptions": "FS",
      "ScanningSequence": "EP",
      "SequenceName": "epfid2d1_104",
      "SequenceVariant": [
        "SK",
        "SS"
],
      "SeriesDescription": "func_task-mario3_run-03",
      "SeriesNumber": 19,
      "SeriesTime": "115440.676000",
      "SliceLocation": -32.259775973793,
      "SliceThickness": 2.0,
      "SmallestImagePixelValue": 0,
      "SoftwareVersions": "syngo MR E11",
      "SpacingBetweenSlices": 1.9999999815687,
      "SpecificCharacterSet": "ISO_IR 100",
      "StudyID": "1",
      "StudyTime": "112255.030000",
      "TransmitCoilName": "Body",
      "VariableFlipAngleFlag": "N",
      "WindowCenterWidthExplanation": "Algo1",
      "dBdt": 0.0},
    "slices": {}
  },
  "time": {
    "samples": {
      "AcquisitionNumber": [1, 2, 3, 4, 5, 6, 7, 8, 9, 10, 11, 12, 13, 14, 15, 16, 17, 18, 19, 20, 21, 22, 23, 24, 25, 26, 27, 28, 29, 30, 31, 32, 33, 34, 35, 36, 37, 38, 39, 40, 41, 42, 43, 44, 45, 46, 47, 48, 49, 50, 51, 52, 53, 54, 55, 56, 57, 58, 59, 60, 61, 62, 63, 64, 65, 66, 67, 68, 69, 70, 71, 72, 73, 74, 75, 76, 77, 78, 79, 80, 81, 82, 83, 84, 85, 86, 87, 88, 89, 90, 91, 92, 93, 94, 95, 96, 97, 98, 99, 100, 101, 102, 103, 104, 105, 106, 107, 108, 109, 110, 111, 112, 113, 114, 115, 116, 117, 118, 119, 120, 121, 122, 123, 124, 125, 126, 127, 128, 129, 130, 131, 132, 133, 134, 135, 136, 137, 138, 139, 140, 141, 142, 143, 144, 145, 146, 147, 148, 149, 150, 151, 152, 153, 154, 155, 156, 157, 158, 159, 160, 161, 162, 163, 164, 165, 166, 167, 168, 169, 170, 171, 172, 173, 174, 175, 176, 177, 178, 179, 180, 181, 182, 183, 184, 185, 186, 187, 188, 189, 190, 191, 192, 193, 194, 195, 196, 197, 198, 199, 200, 201, 202, 203, 204, 205, 206, 207, 208, 209, 210, 211, 212, 213, 214, 215, 216, 217, 218, 219, 220, 221, 222, 223, 224, 225, 226, 227, 228, 229, 230, 231, 232, 233, 234, 235, 236, 237, 238, 239, 240, 241, 242, 243, 244, 245, 246, 247, 248, 249, 250, 251, 252, 253, 254, 255, 256, 257, 258, 259, 260, 261, 262, 263, 264, 265, 266, 267, 268, 269, 270, 271, 272, 273, 274, 275, 276, 277, 278, 279, 280, 281, 282, 283, 284, 285, 286, 287, 288, 289, 290, 291, 292, 293, 294, 295, 296, 297, 298, 299, 300, 301, 302, 303, 304, 305, 306, 307, 308, 309, 310, 311, 312, 313, 314, 315, 316, 317, 318, 319, 320, 321, 322, 323, 324],
      "AcquisitionTime": ["115329.407500", "115330.897500", "115332.387500", "115333.877500", "115335.367500", "115336.857500", "115338.347500", "115339.837500", "115341.327500", "115342.817500", "115344.307500", "115345.797500", "115347.287500", "115348.777500", "115350.267500", "115351.757500", "115353.247500", "115354.737500", "115356.227500", "115357.717500", "115359.207500", "115400.697500", "115402.187500", "115403.677500", "115405.167500", "115406.657500", "115408.147500", "115409.637500", "115411.127500", "115412.617500", "115414.107500", "115415.597500", "115417.087500", "115418.577500", "115420.067500", "115421.557500", "115423.047500", "115424.537500", "115426.027500", "115427.517500", "115429.007500", "115430.497500", "115431.987500", "115433.477500", "115434.967500", "115436.457500", "115437.947500", "115439.437500", "115440.927500", "115442.417500", "115443.907500", "115445.397500", "115446.887500", "115448.377500", "115449.867500", "115451.357500", "115452.847500", "115454.337500", "115455.827500", "115457.317500", "115458.807500", "115500.297500", "115501.787500", "115503.277500", "115504.767500", "115506.257500", "115507.747500", "115509.237500", "115510.727500", "115512.217500", "115513.707500", "115515.197500", "115516.687500", "115518.177500", "115519.667500", "115521.157500", "115522.647500", "115524.137500", "115525.627500", "115527.117500", "115528.607500", "115530.097500", "115531.587500", "115533.077500", "115534.567500", "115536.057500", "115537.547500", "115539.037500", "115540.527500", "115542.017500", "115543.507500", "115544.997500", "115546.487500", "115547.977500", "115549.467500", "115550.957500", "115552.447500", "115553.937500", "115555.427500", "115556.917500", "115558.407500", "115559.897500", "115601.387500", "115602.877500", "115604.367500", "115605.857500", "115607.347500", "115608.837500", "115610.327500", "115611.817500", "115613.307500", "115614.797500", "115616.287500", "115617.777500", "115619.267500", "115620.757500", "115622.247500", "115623.737500", "115625.227500", "115626.717500", "115628.207500", "115629.697500", "115631.187500", "115632.677500", "115634.167500", "115635.657500", "115637.147500", "115638.637500", "115640.127500", "115641.617500", "115643.107500", "115644.597500", "115646.087500", "115647.577500", "115649.067500", "115650.557500", "115652.047500", "115653.537500", "115655.027500", "115656.517500", "115658.007500", "115659.497500", "115700.987500", "115702.477500", "115703.967500", "115705.457500", "115706.947500", "115708.437500", "115709.927500", "115711.417500", "115712.907500", "115714.397500", "115715.887500", "115717.377500", "115718.867500", "115720.357500", "115721.847500", "115723.337500", "115724.827500", "115726.317500", "115727.807500", "115729.297500", "115730.787500", "115732.277500", "115733.767500", "115735.257500", "115736.747500", "115738.237500", "115739.727500", "115741.217500", "115742.707500", "115744.197500", "115745.687500", "115747.177500", "115748.667500", "115750.157500", "115751.647500", "115753.137500", "115754.627500", "115756.117500", "115757.607500", "115759.097500", "115800.587500", "115802.077500", "115803.567500", "115805.057500", "115806.547500", "115808.037500", "115809.527500", "115811.017500", "115812.507500", "115813.997500", "115815.487500", "115816.977500", "115818.467500", "115819.957500", "115821.447500", "115822.937500", "115824.427500", "115825.917500", "115827.407500", "115828.897500", "115830.387500", "115831.877500", "115833.367500", "115834.857500", "115836.347500", "115837.837500", "115839.327500", "115840.817500", "115842.307500", "115843.797500", "115845.287500", "115846.777500", "115848.267500", "115849.757500", "115851.247500", "115852.737500", "115854.227500", "115855.717500", "115857.207500", "115858.697500", "115900.187500", "115901.677500", "115903.167500", "115904.657500", "115906.147500", "115907.637500", "115909.127500", "115910.617500", "115912.107500", "115913.597500", "115915.087500", "115916.577500", "115918.067500", "115919.557500", "115921.047500", "115922.537500", "115924.027500", "115925.517500", "115927.007500", "115928.497500", "115929.987500", "115931.477500", "115932.967500", "115934.457500", "115935.947500", "115937.437500", "115938.927500", "115940.417500", "115941.907500", "115943.397500", "115944.887500", "115946.377500", "115947.867500", "115949.357500", "115950.847500", "115952.337500", "115953.827500", "115955.317500", "115956.807500", "115958.297500", "115959.787500", "120001.277500", "120002.767500", "120004.257500", "120005.747500", "120007.237500", "120008.727500", "120010.217500", "120011.707500", "120013.197500", "120014.687500", "120016.177500", "120017.667500", "120019.157500", "120020.647500", "120022.137500", "120023.627500", "120025.117500", "120026.607500", "120028.097500", "120029.587500", "120031.077500", "120032.567500", "120034.057500", "120035.547500", "120037.037500", "120038.527500", "120040.017500", "120041.507500", "120042.997500", "120044.487500", "120045.977500", "120047.467500", "120048.957500", "120050.447500", "120051.937500", "120053.427500", "120054.917500", "120056.407500", "120057.897500", "120059.387500", "120100.877500", "120102.367500", "120103.857500", "120105.347500", "120106.837500", "120108.327500", "120109.817500", "120111.307500", "120112.797500", "120114.287500", "120115.777500", "120117.267500", "120118.757500", "120120.247500", "120121.737500", "120123.227500", "120124.717500", "120126.207500", "120127.697500", "120129.187500", "120130.677500"],
      "ContentTime": ["115440.679000", "115440.683000", "115440.686000", "115440.689000", "115440.693000", "115440.696000", "115440.699000", "115440.702000", "115440.706000", "115440.709000", "115440.712000", "115440.715000", "115440.719000", "115440.722000", "115440.725000", "115440.728000", "115440.731000", "115440.735000", "115440.738000", "115440.741000", "115440.744000", "115440.748000", "115440.751000", "115440.754000", "115500.638000", "115500.642000", "115500.645000", "115500.648000", "115500.652000", "115500.655000", "115500.658000", "115500.661000", "115500.664000", "115500.668000", "115500.671000", "115500.674000", "115500.677000", "115500.681000", "115500.684000", "115500.687000", "115500.690000", "115500.694000", "115500.697000", "115500.700000", "115520.639000", "115520.643000", "115520.646000", "115520.649000", "115520.653000", "115520.656000", "115520.659000", "115520.662000", "115520.666000", "115520.669000", "115520.672000", "115520.675000", "115520.679000", "115520.682000", "115520.685000", "115520.689000", "115520.706000", "115520.710000", "115520.713000", "115520.716000", "115540.639000", "115540.643000", "115540.646000", "115540.649000", "115540.652000", "115540.656000", "115540.659000", "115540.662000", "115540.665000", "115540.669000", "115540.672000", "115540.675000", "115540.678000", "115540.682000", "115540.685000", "115540.688000", "115540.691000", "115540.695000", "115540.698000", "115540.701000", "115620.639000", "115620.643000", "115620.646000", "115620.649000", "115620.652000", "115620.656000", "115620.659000", "115620.662000", "115620.665000", "115620.669000", "115620.672000", "115620.675000", "115620.678000", "115620.682000", "115620.685000", "115620.688000", "115620.691000", "115620.695000", "115620.698000", "115620.701000", "115620.704000", "115620.708000", "115620.711000", "115620.714000", "115620.717000", "115620.721000", "115620.724000", "115620.727000", "115620.731000", "115620.734000", "115700.638000", "115700.642000", "115700.645000", "115700.648000", "115700.652000", "115700.655000", "115700.658000", "115700.662000", "115700.665000", "115700.668000", "115700.671000", "115700.675000", "115700.678000", "115700.681000", "115700.685000", "115700.688000", "115700.691000", "115700.694000", "115700.698000", "115700.701000", "115700.704000", "115700.707000", "115700.711000", "115700.714000", "115700.717000", "115700.720000", "115700.724000", "115740.639000", "115740.643000", "115740.646000", "115740.649000", "115740.653000", "115740.656000", "115740.659000", "115740.662000", "115740.666000", "115740.669000", "115740.672000", "115740.675000", "115740.679000", "115740.682000", "115740.685000", "115740.688000", "115740.692000", "115740.695000", "115740.698000", "115740.701000", "115740.722000", "115740.726000", "115740.729000", "115740.732000", "115740.735000", "115740.739000", "115740.742000", "115820.639000", "115820.643000", "115820.646000", "115820.649000", "115820.653000", "115820.656000", "115820.659000", "115820.662000", "115820.666000", "115820.669000", "115820.672000", "115820.676000", "115820.679000", "115820.682000", "115820.685000", "115820.689000", "115820.692000", "115820.695000", "115820.698000", "115820.702000", "115820.705000", "115820.708000", "115820.712000", "115820.715000", "115820.718000", "115820.721000", "115820.724000", "115900.638000", "115900.642000", "115900.645000", "115900.648000", "115900.652000", "115900.655000", "115900.658000", "115900.661000", "115900.665000", "115900.668000", "115900.671000", "115900.674000", "115900.678000", "115900.681000", "115900.684000", "115900.688000", "115900.691000", "115900.694000", "115900.697000", "115900.701000", "115900.704000", "115900.707000", "115900.710000", "115900.714000", "115900.717000", "115900.720000", "115900.724000", "115940.638000", "115940.642000", "115940.645000", "115940.648000", "115940.652000", "115940.655000", "115940.658000", "115940.661000", "115940.665000", "115940.668000", "115940.671000", "115940.674000", "115940.678000", "115940.681000", "115940.684000", "115940.688000", "115940.691000", "115940.694000", "115940.697000", "115940.701000", "115940.704000", "115940.707000", "115940.710000", "115940.714000", "115940.717000", "115940.720000", "115940.723000", "120020.639000", "120020.643000", "120020.646000", "120020.649000", "120020.663000", "120020.667000", "120020.671000", "120020.675000", "120020.678000", "120020.682000", "120020.685000", "120020.688000", "120020.692000", "120020.695000", "120020.698000", "120020.701000", "120020.705000", "120020.708000", "120020.711000", "120020.714000", "120020.718000", "120020.721000", "120020.725000", "120020.728000", "120020.731000", "120020.734000", "120100.639000", "120100.643000", "120100.646000", "120100.650000", "120100.653000", "120100.656000", "120100.660000", "120100.663000", "120100.667000", "120100.670000", "120100.674000", "120100.677000", "120100.680000", "120100.684000", "120100.687000", "120100.690000", "120100.693000", "120100.697000", "120100.700000", "120100.703000", "120100.706000", "120100.710000", "120100.713000", "120100.717000", "120100.720000", "120100.723000", "120100.726000", "120133.248000", "120133.262000", "120133.266000", "120133.277000", "120133.287000", "120133.294000", "120133.298000", "120133.316000", "120133.319000", "120133.323000", "120133.330000", "120133.334000", "120133.344000", "120133.350000", "120133.365000", "120133.370000", "120133.375000", "120133.378000", "120133.381000", "120133.385000", "120133.388000", "120133.392000"],
      "InstanceCreationTime": ["115440.679000", "115440.683000", "115440.686000", "115440.689000", "115440.693000", "115440.696000", "115440.699000", "115440.702000", "115440.706000", "115440.709000", "115440.712000", "115440.715000", "115440.719000", "115440.722000", "115440.725000", "115440.728000", "115440.731000", "115440.735000", "115440.738000", "115440.741000", "115440.744000", "115440.748000", "115440.751000", "115440.754000", "115500.638000", "115500.642000", "115500.645000", "115500.648000", "115500.652000", "115500.655000", "115500.658000", "115500.661000", "115500.664000", "115500.668000", "115500.671000", "115500.674000", "115500.677000", "115500.681000", "115500.684000", "115500.687000", "115500.690000", "115500.694000", "115500.697000", "115500.700000", "115520.639000", "115520.643000", "115520.646000", "115520.649000", "115520.653000", "115520.656000", "115520.659000", "115520.662000", "115520.666000", "115520.669000", "115520.672000", "115520.675000", "115520.679000", "115520.682000", "115520.685000", "115520.689000", "115520.706000", "115520.710000", "115520.713000", "115520.716000", "115540.639000", "115540.643000", "115540.646000", "115540.649000", "115540.652000", "115540.656000", "115540.659000", "115540.662000", "115540.665000", "115540.669000", "115540.672000", "115540.675000", "115540.678000", "115540.682000", "115540.685000", "115540.688000", "115540.691000", "115540.695000", "115540.698000", "115540.701000", "115620.639000", "115620.643000", "115620.646000", "115620.649000", "115620.652000", "115620.656000", "115620.659000", "115620.662000", "115620.665000", "115620.669000", "115620.672000", "115620.675000", "115620.678000", "115620.682000", "115620.685000", "115620.688000", "115620.691000", "115620.695000", "115620.698000", "115620.701000", "115620.704000", "115620.708000", "115620.711000", "115620.714000", "115620.717000", "115620.721000", "115620.724000", "115620.727000", "115620.731000", "115620.734000", "115700.638000", "115700.642000", "115700.645000", "115700.648000", "115700.652000", "115700.655000", "115700.658000", "115700.662000", "115700.665000", "115700.668000", "115700.671000", "115700.675000", "115700.678000", "115700.681000", "115700.685000", "115700.688000", "115700.691000", "115700.694000", "115700.698000", "115700.701000", "115700.704000", "115700.707000", "115700.711000", "115700.714000", "115700.717000", "115700.720000", "115700.724000", "115740.639000", "115740.643000", "115740.646000", "115740.649000", "115740.653000", "115740.656000", "115740.659000", "115740.662000", "115740.666000", "115740.669000", "115740.672000", "115740.675000", "115740.679000", "115740.682000", "115740.685000", "115740.688000", "115740.692000", "115740.695000", "115740.698000", "115740.701000", "115740.722000", "115740.726000", "115740.729000", "115740.732000", "115740.735000", "115740.739000", "115740.742000", "115820.639000", "115820.643000", "115820.646000", "115820.649000", "115820.653000", "115820.656000", "115820.659000", "115820.662000", "115820.666000", "115820.669000", "115820.672000", "115820.676000", "115820.679000", "115820.682000", "115820.685000", "115820.689000", "115820.692000", "115820.695000", "115820.698000", "115820.702000", "115820.705000", "115820.708000", "115820.712000", "115820.715000", "115820.718000", "115820.721000", "115820.724000", "115900.638000", "115900.642000", "115900.645000", "115900.648000", "115900.652000", "115900.655000", "115900.658000", "115900.661000", "115900.665000", "115900.668000", "115900.671000", "115900.674000", "115900.678000", "115900.681000", "115900.684000", "115900.688000", "115900.691000", "115900.694000", "115900.697000", "115900.701000", "115900.704000", "115900.707000", "115900.710000", "115900.714000", "115900.717000", "115900.720000", "115900.724000", "115940.638000", "115940.642000", "115940.645000", "115940.648000", "115940.652000", "115940.655000", "115940.658000", "115940.661000", "115940.665000", "115940.668000", "115940.671000", "115940.674000", "115940.678000", "115940.681000", "115940.684000", "115940.688000", "115940.691000", "115940.694000", "115940.697000", "115940.701000", "115940.704000", "115940.707000", "115940.710000", "115940.714000", "115940.717000", "115940.720000", "115940.723000", "120020.639000", "120020.643000", "120020.646000", "120020.649000", "120020.663000", "120020.667000", "120020.671000", "120020.675000", "120020.678000", "120020.682000", "120020.685000", "120020.688000", "120020.692000", "120020.695000", "120020.698000", "120020.701000", "120020.705000", "120020.708000", "120020.711000", "120020.714000", "120020.718000", "120020.721000", "120020.725000", "120020.728000", "120020.731000", "120020.734000", "120100.639000", "120100.643000", "120100.646000", "120100.650000", "120100.653000", "120100.656000", "120100.660000", "120100.663000", "120100.667000", "120100.670000", "120100.674000", "120100.677000", "120100.680000", "120100.684000", "120100.687000", "120100.690000", "120100.693000", "120100.697000", "120100.700000", "120100.703000", "120100.706000", "120100.710000", "120100.713000", "120100.717000", "120100.720000", "120100.723000", "120100.726000", "120133.248000", "120133.262000", "120133.266000", "120133.277000", "120133.287000", "120133.294000", "120133.298000", "120133.316000", "120133.319000", "120133.323000", "120133.330000", "120133.334000", "120133.344000", "120133.350000", "120133.365000", "120133.370000", "120133.375000", "120133.378000", "120133.381000", "120133.385000", "120133.388000", "120133.392000"],
      "InstanceNumber": [1, 2, 3, 4, 5, 6, 7, 8, 9, 10, 11, 12, 13, 14, 15, 16, 17, 18, 19, 20, 21, 22, 23, 24, 25, 26, 27, 28, 29, 30, 31, 32, 33, 34, 35, 36, 37, 38, 39, 40, 41, 42, 43, 44, 45, 46, 47, 48, 49, 50, 51, 52, 53, 54, 55, 56, 57, 58, 59, 60, 61, 62, 63, 64, 65, 66, 67, 68, 69, 70, 71, 72, 73, 74, 75, 76, 77, 78, 79, 80, 81, 82, 83, 84, 85, 86, 87, 88, 89, 90, 91, 92, 93, 94, 95, 96, 97, 98, 99, 100, 101, 102, 103, 104, 105, 106, 107, 108, 109, 110, 111, 112, 113, 114, 115, 116, 117, 118, 119, 120, 121, 122, 123, 124, 125, 126, 127, 128, 129, 130, 131, 132, 133, 134, 135, 136, 137, 138, 139, 140, 141, 142, 143, 144, 145, 146, 147, 148, 149, 150, 151, 152, 153, 154, 155, 156, 157, 158, 159, 160, 161, 162, 163, 164, 165, 166, 167, 168, 169, 170, 171, 172, 173, 174, 175, 176, 177, 178, 179, 180, 181, 182, 183, 184, 185, 186, 187, 188, 189, 190, 191, 192, 193, 194, 195, 196, 197, 198, 199, 200, 201, 202, 203, 204, 205, 206, 207, 208, 209, 210, 211, 212, 213, 214, 215, 216, 217, 218, 219, 220, 221, 222, 223, 224, 225, 226, 227, 228, 229, 230, 231, 232, 233, 234, 235, 236, 237, 238, 239, 240, 241, 242, 243, 244, 245, 246, 247, 248, 249, 250, 251, 252, 253, 254, 255, 256, 257, 258, 259, 260, 261, 262, 263, 264, 265, 266, 267, 268, 269, 270, 271, 272, 273, 274, 275, 276, 277, 278, 279, 280, 281, 282, 283, 284, 285, 286, 287, 288, 289, 290, 291, 292, 293, 294, 295, 296, 297, 298, 299, 300, 301, 302, 303, 304, 305, 306, 307, 308, 309, 310, 311, 312, 313, 314, 315, 316, 317, 318, 319, 320, 321, 322, 323, 324],
      "LargestImagePixelValue": [48779, 46954, 46205, 46010, 45706, 45510, 45550, 46003, 45079, 44701, 45665, 45233, 45220, 46198, 44015, 45026, 45359, 44892, 46458, 46475, 45583, 45394, 45808, 46437, 45375, 45648, 46081, 46552, 45702, 43985, 44065, 43159, 45222, 45483, 45416, 45010, 44346, 44993, 45082, 46145, 45572, 46159, 45528, 44798, 45521, 44582, 43714, 45135, 43511, 43528, 43225, 43881, 43601, 43625, 43944, 43263, 43452, 44172, 43973, 44459, 44111, 44653, 44266, 43528, 43839, 44586, 44018, 44855, 44806, 43488, 42851, 43813, 43021, 43422, 44197, 43996, 43470, 43871, 43273, 43060, 43645, 42749, 43127, 42935, 43421, 43094, 43163, 42792, 43633, 42840, 43762, 43534, 44059, 43242, 43647, 43594, 43874, 43782, 44173, 43959, 43863, 43901, 42953, 43676, 43557, 43247, 42847, 43113, 42444, 43409, 44054, 43454, 44150, 43085, 43287, 43232, 43121, 43335, 43683, 43218, 43361, 43029, 43376, 43898, 43390, 43609, 42847, 42930, 43331, 43505, 43081, 44342, 42457, 42443, 43330, 43031, 42916, 43100, 42955, 43168, 43217, 43021, 43182, 43987, 43955, 43096, 43040, 43242, 43536, 43830, 43336, 43549, 43928, 43549, 43866, 43435, 43544, 44516, 44678, 44170, 43565, 43311, 43791, 44030, 43918, 43284, 43756, 43525, 43355, 43229, 43665, 43628, 43327, 43340, 43180, 42606, 43359, 43206, 43478, 43478, 43265, 42886, 42981, 43556, 43134, 42963, 43070, 43130, 42962, 43090, 42683, 43157, 43703, 43329, 43480, 43553, 43436, 43443, 43124, 43215, 43105, 43958, 43145, 43615, 42665, 43593, 43507, 43583, 43385, 43212, 42928, 44330, 42993, 42964, 43039, 42909, 43745, 43016, 46465, 46756, 46258, 45772, 46131, 46521, 45687, 47097, 46524, 47287, 47120, 47137, 46096, 46431, 46514, 46468, 46015, 46660, 46575, 47319, 47479, 47545, 46701, 47271, 46965, 47436, 47642, 47533, 43943, 44665, 46676, 45789, 45307, 43252, 43228, 43764, 45794, 46566, 45570, 48310, 46122, 46078, 43244, 41799, 43832, 45212, 45314, 46418, 46084, 46419, 47725, 46701, 46864, 45651, 46015, 46800, 47685, 46426, 47335, 46897, 46510, 46685, 46623, 45789, 46655, 46024, 45892, 46363, 45974, 46834, 46537, 46239, 45153, 44374, 43541, 43876, 44739, 44698, 44629, 45659, 43522, 43363, 44003, 42829, 43396, 44488, 44823, 44434, 44105, 44661, 44418, 44104, 43741, 43267, 43768, 42831, 42680, 43858, 43398, 44159, 44901, 44204, 45211, 45367, 44934, 45158],
