{
  "AcquisitionMatrixPE": 104,
  "AcquisitionNumber": 1,
  "AcquisitionTime": "14:04:25.740000",
  "BandwidthPerPixelPhaseEncode": 17.17,
  "BaseResolution": 104,
  "BodyPartExamined": "BRAIN",
  "CoilCombinationMethod": "Sum of Squares",
  "ConsistencyInfo": "N4_VE11C_LATEST_20160120",
  "ConversionSoftware": "dcm2niix",
  "ConversionSoftwareVersion": "v1.0.20220505",
  "DerivedVendorReportedEchoSpacing": 0.000560011,
  "DeviceSerialNumber": "167006",
  "DwellTime": 2.1e-06,
  "EchoTime": 0.037,
  "EchoTrainLength": 104,
  "EffectiveEchoSpacing": 0.000560011,
  "FlipAngle": 52,
  "HeudiconvVersion": "0.5.3.post811+g6206e14",
  "ImageComments": "Unaliased MB4/PE3/LB",
  "ImageOrientationPatientDICOM": [0.999417, 0.00539741, 0.0337053, 0.00261647, 0.972402, -0.233299],
  "ImageOrientationText": "Tra>Cor(-13.5)>Sag(2.0)",
  "ImageType": [
    "ORIGINAL",
    "PRIMARY",
    "M",
    "MB",
    "ND",
    "MOSAIC"
],
  "ImagingFrequency": 123.26,
  "InPlanePhaseEncodingDirectionDICOM": "COL",
  "InstitutionAddress": "Chemin Queen-Mary 4565,Montreal,District,CA,H3W 1W5",
  "InstitutionName": "IUGM",
  "InstitutionalDepartmentName": "Department",
  "MRAcquisitionType": "2D",
  "MagneticFieldStrength": 3,
  "Manufacturer": "Siemens",
  "ManufacturersModelName": "Prisma_fit",
  "MatrixCoilMode": "SENSE",
  "Modality": "MR",
  "MultibandAccelerationFactor": 4,
  "PartialFourier": 1,
  "PatientPosition": "HFS",
  "PercentPhaseFOV": 100,
  "PercentSampling": 100,
  "PhaseEncodingDirection": "j",
  "PhaseEncodingSteps": 104,
  "PhaseResolution": 1,
  "PixelBandwidth": 2290,
  "ProcedureStepDescription": "games^mario3",
  "ProtocolName": "func_task-mario3_run-01",
  "PulseSequenceDetails": "%CustomerSeq%\\cmrr_mbep2d_bold",
  "ReceiveCoilActiveElements": "HC1-7;NC1,2",
  "ReceiveCoilName": "HeadNeck_64",
  "ReconMatrixPE": 104,
  "RepetitionTime": 1.49,
  "SAR": 0.0644959,
  "ScanOptions": "FS",
  "ScanningSequence": "EP",
  "SequenceName": "epfid2d1_104",
  "SequenceVariant": "SK\\SS",
  "SeriesDescription": "func_task-mario3_run-01",
  "SeriesNumber": 10,
  "ShimSetting": [630, -7229, -8796, 709, 79, -10, 54, 0],
  "SliceThickness": 2,
  "SliceTiming": [0, 0.785, 0.1, 0.8825, 0.1975, 0.98, 0.295, 1.08, 0.3925, 1.1775, 0.49, 1.275, 0.59, 1.3725, 0.6875, 0, 0.785, 0.1, 0.8825, 0.1975, 0.98, 0.295, 1.08, 0.3925, 1.1775, 0.49, 1.275, 0.59, 1.3725, 0.6875, 0, 0.785, 0.1, 0.8825, 0.1975, 0.98, 0.295, 1.08, 0.3925, 1.1775, 0.49, 1.275, 0.59, 1.3725, 0.6875, 0, 0.785, 0.1, 0.8825, 0.1975, 0.98, 0.295, 1.08, 0.3925, 1.1775, 0.49, 1.275, 0.59, 1.3725, 0.6875],
  "SoftwareVersions": "syngo MR E11",
  "SpacingBetweenSlices": 2,
  "StationName": "MRC35049",
  "TaskName": "mario3",
  "TotalReadoutTime": 0.0576811,
  "TxRefAmp": 248.771,
  "WipMemBlock": "5c3a0c63-dabb-44bd-8b8a-c91d714c3f43||Sequence: R017 ve11c/master r/75a17815+; Jun 28 2022 16:32:11 by eja",
  "dcmmeta_affine": [
    [-1.998834490776062, 0.005232946015894413, 0.06806854903697968, 106.7952651977539],
    [-0.010794827714562416, 1.9448031187057495, -0.4665021598339081, -75.3955078125],
    [0.06741055101156235, 0.46659767627716064, 1.9436415433883667, -63.68826675415039],
    [0.0, 0.0, 0.0, 1.0]
],
  "dcmmeta_reorient_transform": [
    [0.0, -1.0, 0.0, 103.0],
    [1.0, 0.0, 0.0, 0.0],
    [0.0, 0.0, 1.0, 0.0],
    [0.0, 0.0, 0.0, 1.0]
],
  "dcmmeta_shape": [104, 104, 60, 468],
  "dcmmeta_slice_dim": 2,
  "dcmmeta_version": 0.6,
  "global": {
    "const": {
      "AcquisitionMatrix": [104, 0, 0, 104],
      "AngioFlag": "N",
      "BitsAllocated": 16,
      "BitsStored": 16,
      "BodyPartExamined": "BRAIN",
      "Columns": 832,
      "EchoNumbers": 1,
      "EchoTime": 37.0,
      "EchoTrainLength": 104,
      "FlipAngle": 52.0,
      "HighBit": 15,
      "ImageOrientationPatient": [0.9994172413675, 0.00539741384343, 0.03370527527222, 0.00261647290463, 0.97240156462735, -0.2332988452175],
      "ImagePositionPatient": [-836.81480031828, -836.75686898417, 129.67541373208],
      "ImageType": [
        "ORIGINAL",
        "PRIMARY",
        "M",
        "MB",
        "ND",
        "MOSAIC"
],
      "ImagedNucleus": "1H",
      "ImagingFrequency": 123.260258,
      "InPlanePhaseEncodingDirection": "COL",
      "MRAcquisitionType": "2D",
      "MagneticFieldStrength": 3.0,
      "Manufacturer": "SIEMENS",
      "ManufacturerModelName": "Prisma_fit",
      "Modality": "MR",
      "NumberOfAverages": 1.0,
      "NumberOfPhaseEncodingSteps": 104,
      "PercentPhaseFieldOfView": 100.0,
      "PercentSampling": 100.0,
      "PerformedProcedureStepStartTime": "140138.162000",
      "PhotometricInterpretation": "MONOCHROME2",
      "PixelBandwidth": 2290.0,
      "PixelRepresentation": 0,
      "PixelSpacing": [2.0, 2.0],
      "ProtocolName": "func_task-mario3_run-01",
      "RepetitionTime": 1490.0,
      "Rows": 832,
      "SAR": 0.06449593586569,
      "SamplesPerPixel": 1,
      "ScanOptions": "FS",
      "ScanningSequence": "EP",
      "SequenceName": "epfid2d1_104",
      "SequenceVariant": [
        "SK",
        "SS"
],
      "SeriesDescription": "func_task-mario3_run-01",
      "SeriesNumber": 10,
      "SeriesTime": "140519.892000",
      "SliceLocation": -40.672797820455,
      "SliceThickness": 2.0,
      "SmallestImagePixelValue": 0,
      "SoftwareVersions": "syngo MR E11",
      "SpacingBetweenSlices": 1.9999999997301,
      "SpecificCharacterSet": "ISO_IR 100",
      "StudyID": "1",
      "StudyTime": "140138.084000",
      "TransmitCoilName": "Body",
      "VariableFlipAngleFlag": "N",
      "WindowCenterWidthExplanation": "Algo1",
      "dBdt": 0.0},
    "slices": {}
  },
  "time": {
    "samples": {
      "AcquisitionNumber": [1, 2, 3, 4, 5, 6, 7, 8, 9, 10, 11, 12, 13, 14, 15, 16, 17, 18, 19, 20, 21, 22, 23, 24, 25, 26, 27, 28, 29, 30, 31, 32, 33, 34, 35, 36, 37, 38, 39, 40, 41, 42, 43, 44, 45, 46, 47, 48, 49, 50, 51, 52, 53, 54, 55, 56, 57, 58, 59, 60, 61, 62, 63, 64, 65, 66, 67, 68, 69, 70, 71, 72, 73, 74, 75, 76, 77, 78, 79, 80, 81, 82, 83, 84, 85, 86, 87, 88, 89, 90, 91, 92, 93, 94, 95, 96, 97, 98, 99, 100, 101, 102, 103, 104, 105, 106, 107, 108, 109, 110, 111, 112, 113, 114, 115, 116, 117, 118, 119, 120, 121, 122, 123, 124, 125, 126, 127, 128, 129, 130, 131, 132, 133, 134, 135, 136, 137, 138, 139, 140, 141, 142, 143, 144, 145, 146, 147, 148, 149, 150, 151, 152, 153, 154, 155, 156, 157, 158, 159, 160, 161, 162, 163, 164, 165, 166, 167, 168, 169, 170, 171, 172, 173, 174, 175, 176, 177, 178, 179, 180, 181, 182, 183, 184, 185, 186, 187, 188, 189, 190, 191, 192, 193, 194, 195, 196, 197, 198, 199, 200, 201, 202, 203, 204, 205, 206, 207, 208, 209, 210, 211, 212, 213, 214, 215, 216, 217, 218, 219, 220, 221, 222, 223, 224, 225, 226, 227, 228, 229, 230, 231, 232, 233, 234, 235, 236, 237, 238, 239, 240, 241, 242, 243, 244, 245, 246, 247, 248, 249, 250, 251, 252, 253, 254, 255, 256, 257, 258, 259, 260, 261, 262, 263, 264, 265, 266, 267, 268, 269, 270, 271, 272, 273, 274, 275, 276, 277, 278, 279, 280, 281, 282, 283, 284, 285, 286, 287, 288, 289, 290, 291, 292, 293, 294, 295, 296, 297, 298, 299, 300, 301, 302, 303, 304, 305, 306, 307, 308, 309, 310, 311, 312, 313, 314, 315, 316, 317, 318, 319, 320, 321, 322, 323, 324, 325, 326, 327, 328, 329, 330, 331, 332, 333, 334, 335, 336, 337, 338, 339, 340, 341, 342, 343, 344, 345, 346, 347, 348, 349, 350, 351, 352, 353, 354, 355, 356, 357, 358, 359, 360, 361, 362, 363, 364, 365, 366, 367, 368, 369, 370, 371, 372, 373, 374, 375, 376, 377, 378, 379, 380, 381, 382, 383, 384, 385, 386, 387, 388, 389, 390, 391, 392, 393, 394, 395, 396, 397, 398, 399, 400, 401, 402, 403, 404, 405, 406, 407, 408, 409, 410, 411, 412, 413, 414, 415, 416, 417, 418, 419, 420, 421, 422, 423, 424, 425, 426, 427, 428, 429, 430, 431, 432, 433, 434, 435, 436, 437, 438, 439, 440, 441, 442, 443, 444, 445, 446, 447, 448, 449, 450, 451, 452, 453, 454, 455, 456, 457, 458, 459, 460, 461, 462, 463, 464, 465, 466, 467, 468],
      "AcquisitionTime": ["140425.740000", "140427.230000", "140428.720000", "140430.210000", "140431.700000", "140433.190000", "140434.680000", "140436.170000", "140437.660000", "140439.150000", "140440.640000", "140442.130000", "140443.620000", "140445.110000", "140446.600000", "140448.090000", "140449.580000", "140451.070000", "140452.560000", "140454.050000", "140455.540000", "140457.030000", "140458.520000", "140500.010000", "140501.500000", "140502.990000", "140504.480000", "140505.970000", "140507.460000", "140508.950000", "140510.440000", "140511.930000", "140513.420000", "140514.910000", "140516.400000", "140517.890000", "140519.380000", "140520.870000", "140522.360000", "140523.850000", "140525.340000", "140526.830000", "140528.320000", "140529.810000", "140531.300000", "140532.790000", "140534.280000", "140535.770000", "140537.260000", "140538.750000", "140540.240000", "140541.730000", "140543.220000", "140544.710000", "140546.200000", "140547.690000", "140549.180000", "140550.670000", "140552.160000", "140553.650000", "140555.140000", "140556.630000", "140558.120000", "140559.610000", "140601.100000", "140602.590000", "140604.080000", "140605.570000", "140607.060000", "140608.550000", "140610.040000", "140611.530000", "140613.020000", "140614.510000", "140616.000000", "140617.490000", "140618.980000", "140620.470000", "140621.960000", "140623.450000", "140624.940000", "140626.430000", "140627.920000", "140629.410000", "140630.900000", "140632.390000", "140633.880000", "140635.370000", "140636.860000", "140638.350000", "140639.840000", "140641.330000", "140642.820000", "140644.310000", "140645.800000", "140647.290000", "140648.780000", "140650.270000", "140651.760000", "140653.250000", "140654.740000", "140656.230000", "140657.720000", "140659.210000", "140700.700000", "140702.190000", "140703.680000", "140705.170000", "140706.660000", "140708.150000", "140709.640000", "140711.130000", "140712.620000", "140714.110000", "140715.600000", "140717.090000", "140718.580000", "140720.070000", "140721.560000", "140723.050000", "140724.540000", "140726.030000", "140727.520000", "140729.010000", "140730.500000", "140731.990000", "140733.480000", "140734.970000", "140736.460000", "140737.950000", "140739.440000", "140740.930000", "140742.420000", "140743.910000", "140745.400000", "140746.890000", "140748.380000", "140749.870000", "140751.360000", "140752.850000", "140754.340000", "140755.830000", "140757.320000", "140758.810000", "140800.300000", "140801.790000", "140803.280000", "140804.770000", "140806.260000", "140807.750000", "140809.240000", "140810.730000", "140812.220000", "140813.710000", "140815.200000", "140816.690000", "140818.180000", "140819.670000", "140821.160000", "140822.650000", "140824.140000", "140825.630000", "140827.120000", "140828.610000", "140830.100000", "140831.590000", "140833.080000", "140834.570000", "140836.060000", "140837.550000", "140839.040000", "140840.530000", "140842.020000", "140843.510000", "140845.000000", "140846.490000", "140847.980000", "140849.470000", "140850.960000", "140852.450000", "140853.940000", "140855.430000", "140856.920000", "140858.410000", "140859.900000", "140901.390000", "140902.880000", "140904.370000", "140905.860000", "140907.350000", "140908.840000", "140910.330000", "140911.820000", "140913.310000", "140914.800000", "140916.290000", "140917.780000", "140919.270000", "140920.760000", "140922.250000", "140923.740000", "140925.230000", "140926.720000", "140928.210000", "140929.700000", "140931.190000", "140932.680000", "140934.170000", "140935.660000", "140937.150000", "140938.640000", "140940.130000", "140941.620000", "140943.110000", "140944.600000", "140946.090000", "140947.580000", "140949.070000", "140950.560000", "140952.050000", "140953.540000", "140955.030000", "140956.520000", "140958.010000", "140959.500000", "141000.990000", "141002.480000", "141003.970000", "141005.460000", "141006.950000", "141008.440000", "141009.930000", "141011.420000", "141012.910000", "141014.400000", "141015.890000", "141017.380000", "141018.870000", "141020.360000", "141021.850000", "141023.340000", "141024.830000", "141026.320000", "141027.810000", "141029.300000", "141030.790000", "141032.280000", "141033.770000", "141035.260000", "141036.750000", "141038.240000", "141039.730000", "141041.220000", "141042.710000", "141044.200000", "141045.690000", "141047.180000", "141048.670000", "141050.160000", "141051.650000", "141053.140000", "141054.630000", "141056.120000", "141057.610000", "141059.100000", "141100.590000", "141102.080000", "141103.570000", "141105.060000", "141106.550000", "141108.040000", "141109.530000", "141111.020000", "141112.510000", "141114.000000", "141115.490000", "141116.980000", "141118.470000", "141119.960000", "141121.450000", "141122.940000", "141124.430000", "141125.920000", "141127.410000", "141128.900000", "141130.390000", "141131.880000", "141133.370000", "141134.860000", "141136.350000", "141137.840000", "141139.330000", "141140.820000", "141142.310000", "141143.800000", "141145.290000", "141146.780000", "141148.270000", "141149.760000", "141151.250000", "141152.740000", "141154.230000", "141155.720000", "141157.210000", "141158.700000", "141200.190000", "141201.680000", "141203.170000", "141204.660000", "141206.150000", "141207.640000", "141209.130000", "141210.620000", "141212.110000", "141213.600000", "141215.090000", "141216.580000", "141218.070000", "141219.560000", "141221.050000", "141222.540000", "141224.030000", "141225.520000", "141227.010000", "141228.500000", "141229.990000", "141231.480000", "141232.970000", "141234.460000", "141235.950000", "141237.440000", "141238.930000", "141240.420000", "141241.910000", "141243.400000", "141244.890000", "141246.380000", "141247.870000", "141249.360000", "141250.850000", "141252.340000", "141253.830000", "141255.320000", "141256.810000", "141258.300000", "141259.790000", "141301.280000", "141302.770000", "141304.260000", "141305.750000", "141307.240000", "141308.730000", "141310.220000", "141311.710000", "141313.200000", "141314.690000", "141316.180000", "141317.670000", "141319.160000", "141320.650000", "141322.140000", "141323.630000", "141325.120000", "141326.610000", "141328.100000", "141329.590000", "141331.080000", "141332.570000", "141334.060000", "141335.550000", "141337.040000", "141338.530000", "141340.020000", "141341.510000", "141343.000000", "141344.490000", "141345.980000", "141347.470000", "141348.960000", "141350.450000", "141351.940000", "141353.430000", "141354.920000", "141356.410000", "141357.900000", "141359.390000", "141400.880000", "141402.370000", "141403.860000", "141405.350000", "141406.840000", "141408.330000", "141409.820000", "141411.310000", "141412.800000", "141414.290000", "141415.780000", "141417.270000", "141418.760000", "141420.250000", "141421.740000", "141423.230000", "141424.720000", "141426.210000", "141427.700000", "141429.190000", "141430.680000", "141432.170000", "141433.660000", "141435.150000", "141436.640000", "141438.130000", "141439.620000", "141441.110000", "141442.600000", "141444.090000", "141445.580000", "141447.070000", "141448.560000", "141450.050000", "141451.540000", "141453.030000", "141454.520000", "141456.010000", "141457.500000", "141458.990000", "141500.480000", "141501.970000", "141503.460000", "141504.950000", "141506.440000", "141507.930000", "141509.420000", "141510.910000", "141512.400000", "141513.890000", "141515.380000", "141516.870000", "141518.360000", "141519.850000", "141521.340000", "141522.830000", "141524.320000", "141525.810000", "141527.300000", "141528.790000", "141530.280000", "141531.770000", "141533.260000", "141534.750000", "141536.240000", "141537.730000", "141539.220000", "141540.710000", "141542.200000", "141543.690000", "141545.180000", "141546.670000", "141548.160000", "141549.650000", "141551.140000", "141552.630000", "141554.120000", "141555.610000", "141557.100000", "141558.590000", "141600.080000", "141601.570000"],
      "ContentTime": ["140519.895000", "140519.899000", "140519.903000", "140519.906000", "140519.909000", "140539.853000", "140539.857000", "140539.860000", "140539.863000", "140539.867000", "140539.870000", "140539.873000", "140539.877000", "140539.880000", "140539.883000", "140539.886000", "140539.890000", "140539.905000", "140539.909000", "140539.912000", "140539.915000", "140539.919000", "140539.922000", "140539.929000", "140539.932000", "140559.853000", "140559.857000", "140559.860000", "140559.863000", "140559.866000", "140559.870000", "140559.873000", "140559.876000", "140559.880000", "140559.883000", "140559.886000", "140559.890000", "140559.893000", "140559.896000", "140559.900000", "140559.903000", "140559.906000", "140559.910000", "140559.913000", "140559.916000", "140619.854000", "140619.859000", "140619.862000", "140619.865000", "140619.869000", "140619.872000", "140619.875000", "140619.879000", "140619.882000", "140619.887000", "140619.890000", "140619.893000", "140619.897000", "140619.900000", "140619.903000", "140619.907000", "140619.910000", "140619.913000", "140619.917000", "140619.920000", "140639.853000", "140639.857000", "140639.860000", "140639.863000", "140639.867000", "140639.870000", "140639.873000", "140639.877000", "140639.893000", "140639.896000", "140639.899000", "140639.903000", "140639.906000", "140639.909000", "140639.913000", "140639.916000", "140639.919000", "140639.923000", "140639.926000", "140639.929000", "140639.933000", "140719.852000", "140719.856000", "140719.859000", "140719.863000", "140719.866000", "140719.869000", "140719.873000", "140719.876000", "140719.879000", "140719.883000", "140719.886000", "140719.889000", "140719.893000", "140719.896000", "140719.899000", "140719.903000", "140719.906000", "140719.909000", "140719.912000", "140719.916000", "140719.919000", "140719.922000", "140719.926000", "140719.929000", "140719.933000", "140719.936000", "140719.939000", "140719.943000", "140719.946000", "140719.949000", "140759.853000", "140759.857000", "140759.861000", "140759.864000", "140759.868000", "140759.871000", "140759.874000", "140759.877000", "140759.881000", "140759.884000", "140759.887000", "140759.891000", "140759.894000", "140759.897000", "140759.901000", "140759.904000", "140759.907000", "140759.911000", "140759.914000", "140759.917000", "140759.921000", "140759.924000", "140759.927000", "140759.931000", "140759.934000", "140759.937000", "140839.853000", "140839.857000", "140839.860000", "140839.863000", "140839.867000", "140839.870000", "140839.873000", "140839.877000", "140839.880000", "140839.883000", "140839.887000", "140839.890000", "140839.893000", "140839.897000", "140839.900000", "140839.903000", "140839.907000", "140839.910000", "140839.913000", "140839.917000", "140839.920000", "140839.923000", "140839.927000", "140839.930000", "140839.933000", "140839.936000", "140839.940000", "140919.853000", "140919.857000", "140919.860000", "140919.888000", "140919.891000", "140919.894000", "140919.898000", "140919.901000", "140919.904000", "140919.908000", "140919.911000", "140919.914000", "140919.918000", "140919.921000", "140919.924000", "140919.928000", "140919.931000", "140919.934000", "140919.938000", "140919.941000", "140919.944000", "140919.948000", "140919.951000", "140919.954000", "140919.958000", "140919.961000", "140919.964000", "140959.853000", "140959.857000", "140959.860000", "140959.864000", "140959.867000", "140959.870000", "140959.874000", "140959.877000", "140959.880000", "140959.884000", "140959.887000", "140959.890000", "140959.894000", "140959.897000", "140959.900000", "140959.904000", "140959.907000", "140959.910000", "140959.914000", "140959.917000", "140959.920000", "140959.924000", "140959.927000", "140959.930000", "140959.934000", "140959.937000", "140959.941000", "141039.853000", "141039.857000", "141039.860000", "141039.864000", "141039.867000", "141039.870000", "141039.874000", "141039.877000", "141039.880000", "141039.884000", "141039.887000", "141039.890000", "141039.894000", "141039.897000", "141039.900000", "141039.912000", "141039.915000", "141039.919000", "141039.922000", "141039.925000", "141039.929000", "141039.932000", "141039.935000", "141039.939000", "141039.942000", "141039.945000", "141039.949000", "141119.853000", "141119.857000", "141119.860000", "141119.864000", "141119.867000", "141119.871000", "141119.874000", "141119.877000", "141119.881000", "141119.884000", "141119.887000", "141119.891000", "141119.894000", "141119.897000", "141119.900000", "141119.904000", "141119.907000", "141119.911000", "141119.924000", "141119.927000", "141119.930000", "141119.934000", "141119.937000", "141119.940000", "141119.944000", "141119.947000", "141119.951000", "141159.852000", "141159.856000", "141159.859000", "141159.863000", "141159.866000", "141159.869000", "141159.873000", "141159.876000", "141159.879000", "141159.883000", "141159.886000", "141159.889000", "141159.893000", "141159.896000", "141159.899000", "141159.903000", "141159.906000", "141159.910000", "141159.913000", "141159.916000", "141159.920000", "141159.923000", "141159.926000", "141159.929000", "141159.933000", "141159.936000", "141159.940000", "141239.853000", "141239.857000", "141239.860000", "141239.864000", "141239.867000", "141239.870000", "141239.874000", "141239.877000", "141239.880000", "141239.884000", "141239.888000", "141239.891000", "141239.894000", "141239.898000", "141239.901000", "141239.904000", "141239.908000", "141239.911000", "141239.914000", "141239.918000", "141239.921000", "141239.925000", "141239.928000", "141239.931000", "141239.935000", "141239.938000", "141319.853000", "141319.857000", "141319.860000", "141319.864000", "141319.867000", "141319.870000", "141319.874000", "141319.877000", "141319.881000", "141319.884000", "141319.887000", "141319.891000", "141319.894000", "141319.897000", "141319.901000", "141319.904000", "141319.907000", "141319.911000", "141319.914000", "141319.917000", "141319.921000", "141319.924000", "141319.927000", "141319.931000", "141319.934000", "141319.937000", "141319.941000", "141359.854000", "141359.858000", "141359.876000", "141359.879000", "141359.882000", "141359.886000", "141359.889000", "141359.893000", "141359.896000", "141359.899000", "141359.903000", "141359.906000", "141359.909000", "141359.913000", "141359.916000", "141359.919000", "141359.923000", "141359.926000", "141359.929000", "141359.933000", "141359.936000", "141359.939000", "141359.943000", "141359.946000", "141359.949000", "141359.953000", "141359.956000", "141439.853000", "141439.857000", "141439.860000", "141439.864000", "141439.867000", "141439.870000", "141439.874000", "141439.877000", "141439.880000", "141439.883000", "141439.887000", "141439.890000", "141439.893000", "141439.897000", "141439.900000", "141439.903000", "141439.907000", "141439.910000", "141439.914000", "141439.917000", "141439.920000", "141439.924000", "141439.927000", "141439.930000", "141439.933000", "141439.937000", "141439.940000", "141459.853000", "141459.857000", "141459.860000", "141459.864000", "141459.867000", "141459.870000", "141459.874000", "141459.877000", "141459.880000", "141459.884000", "141459.887000", "141459.891000", "141459.895000", "141539.853000", "141539.857000", "141539.860000", "141539.864000", "141539.867000", "141539.870000", "141539.874000", "141539.877000", "141539.880000", "141539.884000", "141539.897000", "141539.900000", "141539.904000", "141539.907000", "141539.910000", "141539.914000", "141539.917000", "141539.921000", "141539.924000", "141539.927000", "141539.931000", "141539.934000", "141539.937000", "141539.941000", "141539.944000", "141539.961000", "141539.964000", "141604.608000", "141604.611000", "141604.615000", "141604.619000", "141604.622000", "141604.625000", "141604.629000", "141604.632000", "141604.636000", "141604.639000", "141604.643000", "141604.647000", "141604.650000", "141604.654000", "141604.657000", "141604.661000", "141604.664000"],
