{
  "AcquisitionMatrixPE": 104,
  "AcquisitionNumber": 1,
  "AcquisitionTime": "14:18:26.545000",
  "BandwidthPerPixelPhaseEncode": 17.17,
  "BaseResolution": 104,
  "BodyPartExamined": "BRAIN",
  "CoilCombinationMethod": "Sum of Squares",
  "ConsistencyInfo": "N4_VE11C_LATEST_20160120",
  "ConversionSoftware": "dcm2niix",
  "ConversionSoftwareVersion": "v1.0.20220505",
  "DerivedVendorReportedEchoSpacing": 0.000560011,
  "DeviceSerialNumber": "167006",
  "DwellTime": 2.1e-06,
  "EchoTime": 0.037,
  "EchoTrainLength": 104,
  "EffectiveEchoSpacing": 0.000560011,
  "FlipAngle": 52,
  "HeudiconvVersion": "0.5.3.post811+g6206e14",
  "ImageComments": "Unaliased MB4/PE3/LB",
  "ImageOrientationPatientDICOM": [0.999417, 0.00539741, 0.0337053, 0.00261647, 0.972402, -0.233299],
  "ImageOrientationText": "Tra>Cor(-13.5)>Sag(2.0)",
  "ImageType": [
    "ORIGINAL",
    "PRIMARY",
    "M",
    "MB",
    "ND",
    "MOSAIC"
],
  "ImagingFrequency": 123.26,
  "InPlanePhaseEncodingDirectionDICOM": "COL",
  "InstitutionAddress": "Chemin Queen-Mary 4565,Montreal,District,CA,H3W 1W5",
  "InstitutionName": "IUGM",
  "InstitutionalDepartmentName": "Department",
  "MRAcquisitionType": "2D",
  "MagneticFieldStrength": 3,
  "Manufacturer": "Siemens",
  "ManufacturersModelName": "Prisma_fit",
  "MatrixCoilMode": "SENSE",
  "Modality": "MR",
  "MultibandAccelerationFactor": 4,
  "PartialFourier": 1,
  "PatientPosition": "HFS",
  "PercentPhaseFOV": 100,
  "PercentSampling": 100,
  "PhaseEncodingDirection": "j",
  "PhaseEncodingSteps": 104,
  "PhaseResolution": 1,
  "PixelBandwidth": 2290,
  "ProcedureStepDescription": "games^mario3",
  "ProtocolName": "func_task-mario3_run-02",
  "PulseSequenceDetails": "%CustomerSeq%\\cmrr_mbep2d_bold",
  "ReceiveCoilActiveElements": "HC1-7;NC1,2",
  "ReceiveCoilName": "HeadNeck_64",
  "ReconMatrixPE": 104,
  "RepetitionTime": 1.49,
  "SAR": 0.0644959,
  "ScanOptions": "FS",
  "ScanningSequence": "EP",
  "SequenceName": "epfid2d1_104",
  "SequenceVariant": "SK\\SS",
  "SeriesDescription": "func_task-mario3_run-02",
  "SeriesNumber": 13,
  "ShimSetting": [630, -7229, -8796, 709, 79, -10, 54, 0],
  "SliceThickness": 2,
  "SliceTiming": [0, 0.785, 0.0975, 0.8825, 0.1975, 0.98, 0.295, 1.0775, 0.3925, 1.1775, 0.49, 1.275, 0.5875, 1.3725, 0.6875, 0, 0.785, 0.0975, 0.8825, 0.1975, 0.98, 0.295, 1.0775, 0.3925, 1.1775, 0.49, 1.275, 0.5875, 1.3725, 0.6875, 0, 0.785, 0.0975, 0.8825, 0.1975, 0.98, 0.295, 1.0775, 0.3925, 1.1775, 0.49, 1.275, 0.5875, 1.3725, 0.6875, 0, 0.785, 0.0975, 0.8825, 0.1975, 0.98, 0.295, 1.0775, 0.3925, 1.1775, 0.49, 1.275, 0.5875, 1.3725, 0.6875],
  "SoftwareVersions": "syngo MR E11",
  "SpacingBetweenSlices": 2,
  "StationName": "MRC35049",
  "TaskName": "mario3",
  "TotalReadoutTime": 0.0576811,
  "TxRefAmp": 248.771,
  "WipMemBlock": "b773826a-4f42-4c0a-bfb9-ba549014f5a9||Sequence: R017 ve11c/master r/75a17815+; Jun 28 2022 16:32:11 by eja",
  "dcmmeta_affine": [
    [-1.998834490776062, 0.005232946015894413, 0.06806854903697968, 106.7952651977539],
    [-0.010794827714562416, 1.9448031187057495, -0.4665021598339081, -75.3955078125],
    [0.06741055101156235, 0.46659767627716064, 1.9436415433883667, -63.68826675415039],
    [0.0, 0.0, 0.0, 1.0]
],
  "dcmmeta_reorient_transform": [
    [0.0, -1.0, 0.0, 103.0],
    [1.0, 0.0, 0.0, 0.0],
    [0.0, 0.0, 1.0, 0.0],
    [0.0, 0.0, 0.0, 1.0]
],
  "dcmmeta_shape": [104, 104, 60, 308],
  "dcmmeta_slice_dim": 2,
  "dcmmeta_version": 0.6,
  "global": {
    "const": {
      "AcquisitionMatrix": [104, 0, 0, 104],
      "AngioFlag": "N",
      "BitsAllocated": 16,
      "BitsStored": 16,
      "BodyPartExamined": "BRAIN",
      "Columns": 832,
      "EchoNumbers": 1,
      "EchoTime": 37.0,
      "EchoTrainLength": 104,
      "FlipAngle": 52.0,
      "HighBit": 15,
      "ImageOrientationPatient": [0.9994172413675, 0.00539741384343, 0.03370527527222, 0.00261647290463, 0.97240156462735, -0.2332988452175],
      "ImagePositionPatient": [-836.81480031828, -836.75686898417, 129.67541373208],
      "ImageType": [
        "ORIGINAL",
        "PRIMARY",
        "M",
        "MB",
        "ND",
        "MOSAIC"
],
      "ImagedNucleus": "1H",
      "ImagingFrequency": 123.260263,
      "InPlanePhaseEncodingDirection": "COL",
      "MRAcquisitionType": "2D",
      "MagneticFieldStrength": 3.0,
      "Manufacturer": "SIEMENS",
      "ManufacturerModelName": "Prisma_fit",
      "Modality": "MR",
      "NumberOfAverages": 1.0,
      "NumberOfPhaseEncodingSteps": 104,
      "PercentPhaseFieldOfView": 100.0,
      "PercentSampling": 100.0,
      "PerformedProcedureStepStartTime": "140138.162000",
      "PhotometricInterpretation": "MONOCHROME2",
      "PixelBandwidth": 2290.0,
      "PixelRepresentation": 0,
      "PixelSpacing": [2.0, 2.0],
      "ProtocolName": "func_task-mario3_run-02",
      "RepetitionTime": 1490.0,
      "Rows": 832,
      "SAR": 0.06449593586569,
      "SamplesPerPixel": 1,
      "ScanOptions": "FS",
      "ScanningSequence": "EP",
      "SequenceName": "epfid2d1_104",
      "SequenceVariant": [
        "SK",
        "SS"
],
      "SeriesDescription": "func_task-mario3_run-02",
      "SeriesNumber": 13,
      "SeriesTime": "141947.076000",
      "SliceLocation": -40.672797820455,
      "SliceThickness": 2.0,
      "SmallestImagePixelValue": 0,
      "SoftwareVersions": "syngo MR E11",
      "SpacingBetweenSlices": 1.9999999997301,
      "SpecificCharacterSet": "ISO_IR 100",
      "StudyID": "1",
      "StudyTime": "140138.084000",
      "TransmitCoilName": "Body",
      "VariableFlipAngleFlag": "N",
      "WindowCenterWidthExplanation": "Algo1",
      "dBdt": 0.0},
    "slices": {}
  },
  "time": {
    "samples": {
      "AcquisitionNumber": [1, 2, 3, 4, 5, 6, 7, 8, 9, 10, 11, 12, 13, 14, 15, 16, 17, 18, 19, 20, 21, 22, 23, 24, 25, 26, 27, 28, 29, 30, 31, 32, 33, 34, 35, 36, 37, 38, 39, 40, 41, 42, 43, 44, 45, 46, 47, 48, 49, 50, 51, 52, 53, 54, 55, 56, 57, 58, 59, 60, 61, 62, 63, 64, 65, 66, 67, 68, 69, 70, 71, 72, 73, 74, 75, 76, 77, 78, 79, 80, 81, 82, 83, 84, 85, 86, 87, 88, 89, 90, 91, 92, 93, 94, 95, 96, 97, 98, 99, 100, 101, 102, 103, 104, 105, 106, 107, 108, 109, 110, 111, 112, 113, 114, 115, 116, 117, 118, 119, 120, 121, 122, 123, 124, 125, 126, 127, 128, 129, 130, 131, 132, 133, 134, 135, 136, 137, 138, 139, 140, 141, 142, 143, 144, 145, 146, 147, 148, 149, 150, 151, 152, 153, 154, 155, 156, 157, 158, 159, 160, 161, 162, 163, 164, 165, 166, 167, 168, 169, 170, 171, 172, 173, 174, 175, 176, 177, 178, 179, 180, 181, 182, 183, 184, 185, 186, 187, 188, 189, 190, 191, 192, 193, 194, 195, 196, 197, 198, 199, 200, 201, 202, 203, 204, 205, 206, 207, 208, 209, 210, 211, 212, 213, 214, 215, 216, 217, 218, 219, 220, 221, 222, 223, 224, 225, 226, 227, 228, 229, 230, 231, 232, 233, 234, 235, 236, 237, 238, 239, 240, 241, 242, 243, 244, 245, 246, 247, 248, 249, 250, 251, 252, 253, 254, 255, 256, 257, 258, 259, 260, 261, 262, 263, 264, 265, 266, 267, 268, 269, 270, 271, 272, 273, 274, 275, 276, 277, 278, 279, 280, 281, 282, 283, 284, 285, 286, 287, 288, 289, 290, 291, 292, 293, 294, 295, 296, 297, 298, 299, 300, 301, 302, 303, 304, 305, 306, 307, 308],
      "AcquisitionTime": ["141826.545000", "141828.035000", "141829.525000", "141831.015000", "141832.505000", "141833.995000", "141835.485000", "141836.975000", "141838.465000", "141839.955000", "141841.445000", "141842.935000", "141844.425000", "141845.915000", "141847.405000", "141848.895000", "141850.385000", "141851.875000", "141853.365000", "141854.855000", "141856.345000", "141857.835000", "141859.325000", "141900.815000", "141902.305000", "141903.795000", "141905.285000", "141906.775000", "141908.265000", "141909.755000", "141911.245000", "141912.735000", "141914.225000", "141915.715000", "141917.205000", "141918.695000", "141920.185000", "141921.675000", "141923.165000", "141924.655000", "141926.145000", "141927.635000", "141929.125000", "141930.615000", "141932.105000", "141933.595000", "141935.085000", "141936.575000", "141938.065000", "141939.555000", "141941.045000", "141942.535000", "141944.025000", "141945.515000", "141947.005000", "141948.495000", "141949.985000", "141951.475000", "141952.965000", "141954.455000", "141955.945000", "141957.435000", "141958.925000", "142000.415000", "142001.905000", "142003.395000", "142004.885000", "142006.375000", "142007.865000", "142009.355000", "142010.845000", "142012.335000", "142013.825000", "142015.315000", "142016.805000", "142018.295000", "142019.785000", "142021.275000", "142022.765000", "142024.255000", "142025.745000", "142027.235000", "142028.725000", "142030.215000", "142031.705000", "142033.195000", "142034.685000", "142036.175000", "142037.665000", "142039.155000", "142040.645000", "142042.135000", "142043.625000", "142045.115000", "142046.605000", "142048.095000", "142049.585000", "142051.075000", "142052.565000", "142054.055000", "142055.545000", "142057.035000", "142058.525000", "142100.015000", "142101.505000", "142102.995000", "142104.485000", "142105.975000", "142107.465000", "142108.955000", "142110.445000", "142111.935000", "142113.425000", "142114.915000", "142116.405000", "142117.895000", "142119.385000", "142120.875000", "142122.365000", "142123.855000", "142125.345000", "142126.835000", "142128.325000", "142129.815000", "142131.305000", "142132.795000", "142134.285000", "142135.775000", "142137.265000", "142138.755000", "142140.245000", "142141.735000", "142143.225000", "142144.715000", "142146.205000", "142147.695000", "142149.185000", "142150.675000", "142152.165000", "142153.655000", "142155.145000", "142156.635000", "142158.125000", "142159.615000", "142201.105000", "142202.595000", "142204.085000", "142205.575000", "142207.065000", "142208.555000", "142210.045000", "142211.535000", "142213.025000", "142214.515000", "142216.005000", "142217.495000", "142218.985000", "142220.475000", "142221.965000", "142223.455000", "142224.945000", "142226.435000", "142227.925000", "142229.415000", "142230.905000", "142232.395000", "142233.885000", "142235.375000", "142236.865000", "142238.355000", "142239.845000", "142241.335000", "142242.825000", "142244.315000", "142245.805000", "142247.295000", "142248.785000", "142250.275000", "142251.765000", "142253.255000", "142254.745000", "142256.235000", "142257.725000", "142259.215000", "142300.705000", "142302.195000", "142303.685000", "142305.175000", "142306.665000", "142308.155000", "142309.645000", "142311.135000", "142312.625000", "142314.115000", "142315.605000", "142317.095000", "142318.585000", "142320.075000", "142321.565000", "142323.055000", "142324.545000", "142326.035000", "142327.525000", "142329.015000", "142330.505000", "142331.995000", "142333.485000", "142334.975000", "142336.465000", "142337.955000", "142339.445000", "142340.935000", "142342.425000", "142343.915000", "142345.405000", "142346.895000", "142348.385000", "142349.875000", "142351.365000", "142352.855000", "142354.345000", "142355.835000", "142357.325000", "142358.815000", "142400.305000", "142401.795000", "142403.285000", "142404.775000", "142406.265000", "142407.755000", "142409.245000", "142410.735000", "142412.225000", "142413.715000", "142415.205000", "142416.695000", "142418.185000", "142419.675000", "142421.165000", "142422.655000", "142424.145000", "142425.635000", "142427.125000", "142428.615000", "142430.105000", "142431.595000", "142433.085000", "142434.575000", "142436.065000", "142437.555000", "142439.045000", "142440.535000", "142442.025000", "142443.515000", "142445.005000", "142446.495000", "142447.985000", "142449.475000", "142450.965000", "142452.455000", "142453.945000", "142455.435000", "142456.925000", "142458.415000", "142459.905000", "142501.395000", "142502.885000", "142504.375000", "142505.865000", "142507.355000", "142508.845000", "142510.335000", "142511.825000", "142513.315000", "142514.805000", "142516.295000", "142517.785000", "142519.275000", "142520.765000", "142522.255000", "142523.745000", "142525.235000", "142526.725000", "142528.215000", "142529.705000", "142531.195000", "142532.685000", "142534.175000", "142535.665000", "142537.155000", "142538.645000", "142540.135000", "142541.625000", "142543.115000", "142544.605000", "142546.095000", "142547.585000", "142549.075000", "142550.565000", "142552.055000", "142553.545000", "142555.035000", "142556.525000", "142558.015000", "142559.505000", "142600.995000", "142602.485000", "142603.975000"],
      "ContentTime": ["141947.079000", "141947.083000", "141947.086000", "141947.089000", "141947.092000", "141947.096000", "141947.099000", "141947.103000", "141947.106000", "141947.109000", "141947.113000", "141947.116000", "141947.119000", "141947.123000", "141947.130000", "141947.134000", "141947.138000", "141947.141000", "141947.144000", "141947.148000", "141947.151000", "141947.154000", "141947.158000", "141947.161000", "141947.165000", "141947.168000", "141947.171000", "141947.175000", "141947.178000", "141947.181000", "141947.184000", "142007.043000", "142007.047000", "142007.050000", "142007.053000", "142007.057000", "142007.060000", "142007.063000", "142007.066000", "142007.070000", "142007.073000", "142007.076000", "142007.080000", "142007.083000", "142007.086000", "142007.090000", "142007.093000", "142007.096000", "142007.100000", "142007.103000", "142007.106000", "142007.109000", "142027.043000", "142027.047000", "142027.050000", "142027.053000", "142027.057000", "142027.060000", "142027.063000", "142027.067000", "142027.070000", "142027.073000", "142027.077000", "142027.080000", "142027.083000", "142027.087000", "142027.090000", "142027.106000", "142027.110000", "142027.113000", "142027.117000", "142027.120000", "142047.044000", "142047.048000", "142047.051000", "142047.054000", "142047.058000", "142047.061000", "142047.070000", "142047.074000", "142047.077000", "142047.080000", "142047.083000", "142047.087000", "142047.090000", "142047.093000", "142047.096000", "142047.100000", "142047.103000", "142047.106000", "142047.110000", "142047.113000", "142127.043000", "142127.047000", "142127.050000", "142127.053000", "142127.057000", "142127.060000", "142127.063000", "142127.067000", "142127.070000", "142127.073000", "142127.077000", "142127.080000", "142127.084000", "142127.087000", "142127.090000", "142127.094000", "142127.097000", "142127.102000", "142127.106000", "142127.110000", "142127.113000", "142127.116000", "142127.119000", "142127.123000", "142127.126000", "142127.129000", "142127.133000", "142127.136000", "142207.043000", "142207.047000", "142207.050000", "142207.053000", "142207.057000", "142207.060000", "142207.063000", "142207.067000", "142207.070000", "142207.073000", "142207.077000", "142207.080000", "142207.083000", "142207.087000", "142207.090000", "142207.093000", "142207.097000", "142207.100000", "142207.103000", "142207.107000", "142207.110000", "142207.113000", "142207.117000", "142207.120000", "142207.123000", "142207.127000", "142207.130000", "142247.044000", "142247.048000", "142247.051000", "142247.054000", "142247.058000", "142247.061000", "142247.065000", "142247.068000", "142247.071000", "142247.075000", "142247.078000", "142247.081000", "142247.084000", "142247.088000", "142247.091000", "142247.094000", "142247.098000", "142247.101000", "142247.104000", "142247.108000", "142247.111000", "142247.114000", "142247.118000", "142247.121000", "142247.124000", "142247.128000", "142247.131000", "142327.044000", "142327.048000", "142327.051000", "142327.055000", "142327.058000", "142327.061000", "142327.065000", "142327.068000", "142327.071000", "142327.075000", "142327.078000", "142327.081000", "142327.085000", "142327.088000", "142327.091000", "142327.095000", "142327.098000", "142327.101000", "142327.105000", "142327.108000", "142327.111000", "142327.115000", "142327.118000", "142327.121000", "142327.125000", "142327.128000", "142327.131000", "142407.043000", "142407.047000", "142407.050000", "142407.053000", "142407.057000", "142407.060000", "142407.064000", "142407.067000", "142407.070000", "142407.074000", "142407.077000", "142407.080000", "142407.084000", "142407.087000", "142407.090000", "142407.094000", "142407.097000", "142407.100000", "142407.104000", "142407.107000", "142407.110000", "142407.114000", "142407.117000", "142407.120000", "142407.124000", "142407.127000", "142407.130000", "142447.043000", "142447.047000", "142447.050000", "142447.054000", "142447.057000", "142447.060000", "142447.064000", "142447.067000", "142447.070000", "142447.074000", "142447.077000", "142447.080000", "142447.084000", "142447.087000", "142447.090000", "142447.094000", "142447.097000", "142447.101000", "142447.104000", "142447.107000", "142447.111000", "142447.114000", "142447.117000", "142447.121000", "142447.124000", "142447.127000", "142447.130000", "142527.044000", "142527.048000", "142527.051000", "142527.055000", "142527.058000", "142527.061000", "142527.065000", "142527.068000", "142527.071000", "142527.075000", "142527.078000", "142527.081000", "142527.097000", "142527.100000", "142527.104000", "142527.107000", "142527.110000", "142527.118000", "142527.122000", "142527.125000", "142527.128000", "142527.132000", "142527.135000", "142527.138000", "142527.141000", "142527.145000", "142527.148000", "142605.945000", "142605.948000", "142605.952000", "142605.955000", "142605.958000", "142605.962000", "142605.965000", "142605.968000", "142605.972000", "142605.975000", "142605.978000", "142605.982000", "142605.985000", "142605.989000", "142605.992000", "142605.995000", "142606.000000", "142606.003000", "142606.006000", "142606.010000", "142606.013000", "142606.016000", "142606.020000", "142606.023000", "142606.026000", "142606.030000"],
      "InstanceCreationTime": ["141947.079000", "141947.083000", "141947.086000", "141947.089000", "141947.092000", "141947.096000", "141947.099000", "141947.103000", "141947.106000", "141947.109000", "141947.113000", "141947.116000", "141947.119000", "141947.123000", "141947.130000", "141947.134000", "141947.138000", "141947.141000", "141947.144000", "141947.148000", "141947.151000", "141947.154000", "141947.158000", "141947.161000", "141947.165000", "141947.168000", "141947.171000", "141947.175000", "141947.178000", "141947.181000", "141947.184000", "142007.043000", "142007.047000", "142007.050000", "142007.053000", "142007.057000", "142007.060000", "142007.063000", "142007.066000", "142007.070000", "142007.073000", "142007.076000", "142007.080000", "142007.083000", "142007.086000", "142007.090000", "142007.093000", "142007.096000", "142007.100000", "142007.103000", "142007.106000", "142007.109000", "142027.043000", "142027.047000", "142027.050000", "142027.053000", "142027.057000", "142027.060000", "142027.063000", "142027.067000", "142027.070000", "142027.073000", "142027.077000", "142027.080000", "142027.083000", "142027.087000", "142027.090000", "142027.106000", "142027.110000", "142027.113000", "142027.117000", "142027.120000", "142047.044000", "142047.048000", "142047.051000", "142047.054000", "142047.058000", "142047.061000", "142047.070000", "142047.074000", "142047.077000", "142047.080000", "142047.083000", "142047.087000", "142047.090000", "142047.093000", "142047.096000", "142047.100000", "142047.103000", "142047.106000", "142047.110000", "142047.113000", "142127.043000", "142127.047000", "142127.050000", "142127.053000", "142127.057000", "142127.060000", "142127.063000", "142127.067000", "142127.070000", "142127.073000", "142127.077000", "142127.080000", "142127.084000", "142127.087000", "142127.090000", "142127.094000", "142127.097000", "142127.102000", "142127.106000", "142127.110000", "142127.113000", "142127.116000", "142127.119000", "142127.123000", "142127.126000", "142127.129000", "142127.133000", "142127.136000", "142207.043000", "142207.047000", "142207.050000", "142207.053000", "142207.057000", "142207.060000", "142207.063000", "142207.067000", "142207.070000", "142207.073000", "142207.077000", "142207.080000", "142207.083000", "142207.087000", "142207.090000", "142207.093000", "142207.097000", "142207.100000", "142207.103000", "142207.107000", "142207.110000", "142207.113000", "142207.117000", "142207.120000", "142207.123000", "142207.127000", "142207.130000", "142247.044000", "142247.048000", "142247.051000", "142247.054000", "142247.058000", "142247.061000", "142247.065000", "142247.068000", "142247.071000", "142247.075000", "142247.078000", "142247.081000", "142247.084000", "142247.088000", "142247.091000", "142247.094000", "142247.098000", "142247.101000", "142247.104000", "142247.108000", "142247.111000", "142247.114000", "142247.118000", "142247.121000", "142247.124000", "142247.128000", "142247.131000", "142327.044000", "142327.048000", "142327.051000", "142327.055000", "142327.058000", "142327.061000", "142327.065000", "142327.068000", "142327.071000", "142327.075000", "142327.078000", "142327.081000", "142327.085000", "142327.088000", "142327.091000", "142327.095000", "142327.098000", "142327.101000", "142327.105000", "142327.108000", "142327.111000", "142327.115000", "142327.118000", "142327.121000", "142327.125000", "142327.128000", "142327.131000", "142407.043000", "142407.047000", "142407.050000", "142407.053000", "142407.057000", "142407.060000", "142407.064000", "142407.067000", "142407.070000", "142407.074000", "142407.077000", "142407.080000", "142407.084000", "142407.087000", "142407.090000", "142407.094000", "142407.097000", "142407.100000", "142407.104000", "142407.107000", "142407.110000", "142407.114000", "142407.117000", "142407.120000", "142407.124000", "142407.127000", "142407.130000", "142447.043000", "142447.047000", "142447.050000", "142447.054000", "142447.057000", "142447.060000", "142447.064000", "142447.067000", "142447.070000", "142447.074000", "142447.077000", "142447.080000", "142447.084000", "142447.087000", "142447.090000", "142447.094000", "142447.097000", "142447.101000", "142447.104000", "142447.107000", "142447.111000", "142447.114000", "142447.117000", "142447.121000", "142447.124000", "142447.127000", "142447.130000", "142527.044000", "142527.048000", "142527.051000", "142527.055000", "142527.058000", "142527.061000", "142527.065000", "142527.068000", "142527.071000", "142527.075000", "142527.078000", "142527.081000", "142527.097000", "142527.100000", "142527.104000", "142527.107000", "142527.110000", "142527.118000", "142527.122000", "142527.125000", "142527.128000", "142527.132000", "142527.135000", "142527.138000", "142527.141000", "142527.145000", "142527.148000", "142605.945000", "142605.948000", "142605.952000", "142605.955000", "142605.958000", "142605.962000", "142605.965000", "142605.968000", "142605.972000", "142605.975000", "142605.978000", "142605.982000", "142605.985000", "142605.989000", "142605.992000", "142605.995000", "142606.000000", "142606.003000", "142606.006000", "142606.010000", "142606.013000", "142606.016000", "142606.020000", "142606.023000", "142606.026000", "142606.030000"],
      "InstanceNumber": [1, 2, 3, 4, 5, 6, 7, 8, 9, 10, 11, 12, 13, 14, 15, 16, 17, 18, 19, 20, 21, 22, 23, 24, 25, 26, 27, 28, 29, 30, 31, 32, 33, 34, 35, 36, 37, 38, 39, 40, 41, 42, 43, 44, 45, 46, 47, 48, 49, 50, 51, 52, 53, 54, 55, 56, 57, 58, 59, 60, 61, 62, 63, 64, 65, 66, 67, 68, 69, 70, 71, 72, 73, 74, 75, 76, 77, 78, 79, 80, 81, 82, 83, 84, 85, 86, 87, 88, 89, 90, 91, 92, 93, 94, 95, 96, 97, 98, 99, 100, 101, 102, 103, 104, 105, 106, 107, 108, 109, 110, 111, 112, 113, 114, 115, 116, 117, 118, 119, 120, 121, 122, 123, 124, 125, 126, 127, 128, 129, 130, 131, 132, 133, 134, 135, 136, 137, 138, 139, 140, 141, 142, 143, 144, 145, 146, 147, 148, 149, 150, 151, 152, 153, 154, 155, 156, 157, 158, 159, 160, 161, 162, 163, 164, 165, 166, 167, 168, 169, 170, 171, 172, 173, 174, 175, 176, 177, 178, 179, 180, 181, 182, 183, 184, 185, 186, 187, 188, 189, 190, 191, 192, 193, 194, 195, 196, 197, 198, 199, 200, 201, 202, 203, 204, 205, 206, 207, 208, 209, 210, 211, 212, 213, 214, 215, 216, 217, 218, 219, 220, 221, 222, 223, 224, 225, 226, 227, 228, 229, 230, 231, 232, 233, 234, 235, 236, 237, 238, 239, 240, 241, 242, 243, 244, 245, 246, 247, 248, 249, 250, 251, 252, 253, 254, 255, 256, 257, 258, 259, 260, 261, 262, 263, 264, 265, 266, 267, 268, 269, 270, 271, 272, 273, 274, 275, 276, 277, 278, 279, 280, 281, 282, 283, 284, 285, 286, 287, 288, 289, 290, 291, 292, 293, 294, 295, 296, 297, 298, 299, 300, 301, 302, 303, 304, 305, 306, 307, 308],
      "LargestImagePixelValue": [42026, 40404, 40055, 39146, 39203, 39236, 39789, 39176, 38981, 38977, 39022, 39604, 39052, 38949, 38791, 39194, 38107, 39410, 38485, 38477, 38714, 38478, 38424, 38816, 38828, 38770, 38940, 38724, 38447, 38233, 38529, 38335, 38587, 38235, 38232, 38670, 38769, 39022, 39480, 38681, 38701, 38956, 38607, 38782, 38787, 38300, 38818, 39354, 38445, 38871, 38656, 38606, 38596, 39155, 38804, 38951, 38742, 38810, 38849, 38764, 40034, 38993, 38377, 38444, 38347, 38356, 38045, 38393, 38525, 38986, 38083, 38380, 39466, 38241, 38806, 38981, 38162, 39601, 39293, 39411, 39476, 38978, 38717, 38731, 39076, 38975, 38416, 39084, 38059, 38134, 38055, 38621, 39011, 39171, 39033, 39062, 38791, 39159, 39187, 38377, 37952, 39013, 38814, 38587, 38505, 38858, 38530, 38751, 38300, 38217, 38456, 38645, 38192, 38345, 38594, 38401, 38634, 38235, 38908, 39084, 38584, 37964, 38246, 38789, 39170, 38579, 39394, 39285, 38846, 38485, 38593, 39146, 38499, 39071, 38442, 38814, 38840, 38627, 37914, 39403, 38088, 38736, 38314, 38194, 38887, 38904, 38578, 38768, 38835, 38357, 38471, 38197, 38613, 38505, 38718, 38649, 38113, 39308, 38723, 38858, 38693, 39042, 39086, 38423, 39153, 38828, 38721, 38313, 38526, 38850, 38912, 39108, 39266, 39496, 39126, 39076, 39395, 39316, 39448, 38837, 39000, 39221, 39160, 39041, 38996, 38788, 39332, 39214, 39008, 39061, 39447, 38828, 38772, 38900, 38816, 39126, 38957, 39423, 39360, 39434, 38925, 38206, 38239, 38208, 38512, 38283, 38764, 39200, 38809, 38890, 38326, 38026, 38138, 38378, 38456, 38501, 38719, 38417, 38806, 38598, 38385, 38471, 38269, 38559, 37963, 38394, 38430, 38272, 38624, 38757, 38326, 37774, 38265, 38405, 38211, 38518, 37996, 38293, 38339, 38029, 38589, 38539, 38393, 37868, 38699, 38562, 39006, 38361, 39086, 38758, 38489, 38308, 38334, 38642, 38051, 37826, 38108, 39785, 38732, 38407, 37439, 38407, 38944, 38149, 37785, 39062, 38344, 38266, 38106, 37687, 38161, 38247, 38142, 38156, 38362, 38414, 37957, 38012, 38099, 38028, 39313, 38470, 37409, 38114, 38167, 37960, 38233, 38611, 38479, 39451, 39541, 38081, 37909, 38733, 38321, 38374, 38126, 38700, 38081, 37627, 37871, 37999, 38043, 38122, 38131, 37810, 37988, 38255],
      "WindowCenter": [10070.0, 10017.0, 10020.0, 9980.0, 9978.0, 9993.0, 10022.0, 10019.0, 10042.0, 10045.0, 10039.0, 10046.0, 9993.0, 10015.0, 9986.0, 9998.0, 9986.0, 10013.0, 10005.0, 9996.0, 9985.0, 9941.0, 9932.0, 9947.0, 9948.0, 9956.0, 9944.0, 9972.0, 9962.0, 9965.0, 9967.0, 9943.0, 9976.0, 9974.0, 9988.0, 9995.0, 9976.0, 9963.0, 9969.0, 9952.0, 9957.0, 9954.0, 9933.0, 9914.0, 9936.0, 9927.0, 9934.0, 9962.0, 9917.0, 9953.0, 9982.0, 9991.0, 9986.0, 9966.0, 9962.0, 9949.0, 9944.0, 9956.0, 9939.0, 9944.0, 10009.0, 10001.0, 10002.0, 9986.0, 10017.0, 9982.0, 9969.0, 9982.0, 9991.0, 10006.0, 9995.0, 10000.0, 9977.0, 10018.0, 10043.0, 9986.0, 9993.0, 10028.0, 10029.0, 10022.0, 10022.0, 10018.0, 9972.0, 9952.0, 9890.0, 10043.0, 9948.0, 9949.0, 9947.0, 9918.0, 9918.0, 9948.0, 9949.0, 10006.0, 9976.0, 9998.0, 9999.0, 10008.0, 10016.0, 10020.0, 10022.0, 9989.0, 10016.0, 9989.0, 10032.0, 9993.0, 10003.0, 9957.0, 9999.0, 9961.0, 9983.0, 9952.0, 9986.0, 9988.0, 9960.0, 9961.0, 9988.0, 9960.0, 9972.0, 9960.0, 9969.0, 9958.0, 9997.0, 9964.0, 10029.0, 10010.0, 9989.0, 10031.0, 10048.0, 10020.0, 10045.0, 9999.0, 9980.0, 9943.0, 9991.0, 9962.0, 9956.0, 9968.0, 9912.0, 10029.0, 9937.0, 9966.0, 9925.0, 9890.0, 9907.0, 9926.0, 9943.0, 9936.0, 9937.0, 9937.0, 9922.0, 9938.0, 9929.0, 9955.0, 9974.0, 9927.0, 9989.0, 9975.0, 9980.0, 9998.0, 10000.0, 10000.0, 9993.0, 10006.0, 9992.0, 9999.0, 9995.0, 9999.0, 9929.0, 9926.0, 9927.0, 9927.0, 9933.0, 9936.0, 9926.0, 9946.0, 9961.0, 9964.0, 9996.0, 9985.0, 10002.0, 9998.0, 9985.0, 10002.0, 9993.0, 9993.0, 9984.0, 9967.0, 9970.0, 9957.0, 9963.0, 9950.0, 9957.0, 9973.0, 9977.0, 9994.0, 9990.0, 10008.0, 9981.0, 10023.0, 10024.0, 9959.0, 9959.0, 9977.0, 9975.0, 9980.0, 9976.0, 9985.0, 10043.0, 10024.0, 10001.0, 9959.0, 9903.0, 9905.0, 9914.0, 9915.0, 9951.0, 9968.0, 9968.0, 9974.0, 9961.0, 9968.0, 9975.0, 9978.0, 9982.0, 9976.0, 9972.0, 9967.0, 9964.0, 9963.0, 9963.0, 9964.0, 9979.0, 9984.0, 9997.0, 9982.0, 9973.0, 9974.0, 9961.0, 9972.0, 9986.0, 9961.0, 9989.0, 9980.0, 9985.0, 9979.0, 9949.0, 9946.0, 9915.0, 9922.0, 9909.0, 9923.0, 9924.0, 9977.0, 9950.0, 9972.0, 9979.0, 10002.0, 9978.0, 10072.0, 9986.0, 9994.0, 9993.0, 9908.0, 9901.0, 9930.0, 9941.0, 9970.0, 9947.0, 9939.0, 9957.0, 9972.0, 9989.0, 10007.0, 9999.0, 9989.0, 9965.0, 9948.0, 9938.0, 9928.0, 9985.0, 9965.0, 9981.0, 9937.0, 9933.0, 9892.0, 9880.0, 9898.0, 9920.0, 9954.0, 9900.0, 9990.0, 9902.0, 9915.0, 9902.0, 9891.0, 9882.0, 9930.0, 9940.0, 9954.0, 9934.0, 9911.0, 9910.0, 9943.0, 9964.0, 9993.0, 9972.0, 9943.0],
