{
  "AcquisitionMatrixPE": 104,
  "AcquisitionNumber": 1,
  "AcquisitionTime": "12:06:54.655000",
  "BandwidthPerPixelPhaseEncode": 17.17,
  "BaseResolution": 104,
  "BodyPartExamined": "BRAIN",
  "CoilCombinationMethod": "Sum of Squares",
  "ConsistencyInfo": "N4_VE11C_LATEST_20160120",
  "ConversionSoftware": "dcm2niix",
  "ConversionSoftwareVersion": "v1.0.20220505",
  "DerivedVendorReportedEchoSpacing": 0.000560011,
  "DeviceSerialNumber": "167006",
  "DwellTime": 2.1e-06,
  "EchoTime": 0.037,
  "EchoTrainLength": 104,
  "EffectiveEchoSpacing": 0.000560011,
  "FlipAngle": 52,
  "HeudiconvVersion": "0.5.3.post811+g6206e14",
  "ImageComments": "Unaliased MB4/PE3/LB",
  "ImageOrientationPatientDICOM": [0.996363, 0.0719648, 0.0456198, -0.051171, 0.933482, -0.354954],
  "ImageOrientationText": "Tra>Cor(-20.6)>Sag(3.9)",
  "ImageType": [
    "ORIGINAL",
    "PRIMARY",
    "M",
    "MB",
    "ND",
    "MOSAIC"
],
  "ImagingFrequency": 123.259,
  "InPlanePhaseEncodingDirectionDICOM": "COL",
  "InstitutionAddress": "Chemin Queen-Mary 4565,Montreal,District,CA,H3W 1W5",
  "InstitutionName": "IUGM",
  "InstitutionalDepartmentName": "Department",
  "MRAcquisitionType": "2D",
  "MagneticFieldStrength": 3,
  "Manufacturer": "Siemens",
  "ManufacturersModelName": "Prisma_fit",
  "MatrixCoilMode": "SENSE",
  "Modality": "MR",
  "MultibandAccelerationFactor": 4,
  "PartialFourier": 1,
  "PatientPosition": "HFS",
  "PercentPhaseFOV": 100,
  "PercentSampling": 100,
  "PhaseEncodingDirection": "j",
  "PhaseEncodingSteps": 104,
  "PhaseResolution": 1,
  "PixelBandwidth": 2290,
  "ProcedureStepDescription": "games^mario3",
  "ProtocolName": "func_task-mario3_run-04",
  "PulseSequenceDetails": "%CustomerSeq%\\cmrr_mbep2d_bold",
  "ReceiveCoilActiveElements": "HC1-7;NC1,2",
  "ReceiveCoilName": "HeadNeck_64",
  "ReconMatrixPE": 104,
  "RepetitionTime": 1.49,
  "SAR": 0.0508668,
  "ScanOptions": "FS",
  "ScanningSequence": "EP",
  "SequenceName": "epfid2d1_104",
  "SequenceVariant": "SK\\SS",
  "SeriesDescription": "func_task-mario3_run-04",
  "SeriesNumber": 19,
  "ShimSetting": [610, -7247, -8814, 603, 116, -59, -54, 81],
  "SliceThickness": 2,
  "SliceTiming": [0, 0.7825, 0.0975, 0.8825, 0.195, 0.98, 0.2925, 1.0775, 0.3925, 1.175, 0.49, 1.2725, 0.5875, 1.37, 0.685, 0, 0.7825, 0.0975, 0.8825, 0.195, 0.98, 0.2925, 1.0775, 0.3925, 1.175, 0.49, 1.2725, 0.5875, 1.37, 0.685, 0, 0.7825, 0.0975, 0.8825, 0.195, 0.98, 0.2925, 1.0775, 0.3925, 1.175, 0.49, 1.2725, 0.5875, 1.37, 0.685, 0, 0.7825, 0.0975, 0.8825, 0.195, 0.98, 0.2925, 1.0775, 0.3925, 1.175, 0.49, 1.2725, 0.5875, 1.37, 0.685],
  "SoftwareVersions": "syngo MR E11",
  "SpacingBetweenSlices": 2,
  "StationName": "MRC35049",
  "TaskName": "mario3",
  "TotalReadoutTime": 0.0576811,
  "TxRefAmp": 252.112,
  "WipMemBlock": "4772617a-73f6-4166-ae0f-ba5c53b103ad||Sequence: R017 ve11c/master r/75a17815+; Jun 28 2022 16:32:11 by eja",
  "dcmmeta_affine": [
    [-1.9927266836166382, -0.10234203189611435, 0.13625892996788025, 109.39710235595703],
    [-0.14392957091331482, 1.8669646978378296, -0.7026572823524475, -52.502567291259766],
    [0.09123962372541428, 0.7099078297615051, 1.8675401210784912, -63.4535026550293],
    [0.0, 0.0, 0.0, 1.0]
],
  "dcmmeta_reorient_transform": [
    [0.0, -1.0, 0.0, 103.0],
    [1.0, 0.0, 0.0, 0.0],
    [0.0, 0.0, 1.0, 0.0],
    [0.0, 0.0, 0.0, 1.0]
],
  "dcmmeta_shape": [104, 104, 60, 397],
  "dcmmeta_slice_dim": 2,
  "dcmmeta_version": 0.6,
  "global": {
    "const": {
      "AcquisitionMatrix": [104, 0, 0, 104],
      "AngioFlag": "N",
      "BitsAllocated": 16,
      "BitsStored": 16,
      "BodyPartExamined": "BRAIN",
      "Columns": 832,
      "EchoNumbers": 1,
      "EchoTime": 37.0,
      "EchoTrainLength": 104,
      "FlipAngle": 52.0,
      "HighBit": 15,
      "ImageOrientationPatient": [0.9963633386832, 0.0719647835097, 0.04561981217057, -0.0511710144504, 0.93348232471718, -0.354953907882],
      "ImagePositionPatient": [-786.95588280455, -871.76028460263, 234.86222350658],
      "ImageType": [
        "ORIGINAL",
        "PRIMARY",
        "M",
        "MB",
        "ND",
        "MOSAIC"
],
      "ImagedNucleus": "1H",
      "ImagingFrequency": 123.259262,
      "InPlanePhaseEncodingDirection": "COL",
      "MRAcquisitionType": "2D",
      "MagneticFieldStrength": 3.0,
      "Manufacturer": "SIEMENS",
      "ManufacturerModelName": "Prisma_fit",
      "Modality": "MR",
      "NumberOfAverages": 1.0,
      "NumberOfPhaseEncodingSteps": 104,
      "PercentPhaseFieldOfView": 100.0,
      "PercentSampling": 100.0,
      "PerformedProcedureStepStartTime": "113336.628000",
      "PhotometricInterpretation": "MONOCHROME2",
      "PixelBandwidth": 2290.0,
      "PixelRepresentation": 0,
      "PixelSpacing": [2.0, 2.0],
      "ProtocolName": "func_task-mario3_run-04",
      "RepetitionTime": 1490.0,
      "Rows": 832,
      "SAR": 0.05086682170868,
      "SamplesPerPixel": 1,
      "ScanOptions": "FS",
      "ScanningSequence": "EP",
      "SequenceName": "epfid2d1_104",
      "SequenceVariant": [
        "SK",
        "SS"
],
      "SeriesDescription": "func_task-mario3_run-04",
      "SeriesNumber": 19,
      "SeriesTime": "120806.697000",
      "SliceLocation": -33.352159530098,
      "SliceThickness": 2.0,
      "SmallestImagePixelValue": 0,
      "SoftwareVersions": "syngo MR E11",
      "SpacingBetweenSlices": 1.9999999461855,
      "SpecificCharacterSet": "ISO_IR 100",
      "StudyID": "1",
      "StudyTime": "113336.548000",
      "TransmitCoilName": "Body",
      "VariableFlipAngleFlag": "N",
      "WindowCenterWidthExplanation": "Algo1",
      "dBdt": 0.0},
    "slices": {}
  },
  "time": {
    "samples": {
      "AcquisitionNumber": [1, 2, 3, 4, 5, 6, 7, 8, 9, 10, 11, 12, 13, 14, 15, 16, 17, 18, 19, 20, 21, 22, 23, 24, 25, 26, 27, 28, 29, 30, 31, 32, 33, 34, 35, 36, 37, 38, 39, 40, 41, 42, 43, 44, 45, 46, 47, 48, 49, 50, 51, 52, 53, 54, 55, 56, 57, 58, 59, 60, 61, 62, 63, 64, 65, 66, 67, 68, 69, 70, 71, 72, 73, 74, 75, 76, 77, 78, 79, 80, 81, 82, 83, 84, 85, 86, 87, 88, 89, 90, 91, 92, 93, 94, 95, 96, 97, 98, 99, 100, 101, 102, 103, 104, 105, 106, 107, 108, 109, 110, 111, 112, 113, 114, 115, 116, 117, 118, 119, 120, 121, 122, 123, 124, 125, 126, 127, 128, 129, 130, 131, 132, 133, 134, 135, 136, 137, 138, 139, 140, 141, 142, 143, 144, 145, 146, 147, 148, 149, 150, 151, 152, 153, 154, 155, 156, 157, 158, 159, 160, 161, 162, 163, 164, 165, 166, 167, 168, 169, 170, 171, 172, 173, 174, 175, 176, 177, 178, 179, 180, 181, 182, 183, 184, 185, 186, 187, 188, 189, 190, 191, 192, 193, 194, 195, 196, 197, 198, 199, 200, 201, 202, 203, 204, 205, 206, 207, 208, 209, 210, 211, 212, 213, 214, 215, 216, 217, 218, 219, 220, 221, 222, 223, 224, 225, 226, 227, 228, 229, 230, 231, 232, 233, 234, 235, 236, 237, 238, 239, 240, 241, 242, 243, 244, 245, 246, 247, 248, 249, 250, 251, 252, 253, 254, 255, 256, 257, 258, 259, 260, 261, 262, 263, 264, 265, 266, 267, 268, 269, 270, 271, 272, 273, 274, 275, 276, 277, 278, 279, 280, 281, 282, 283, 284, 285, 286, 287, 288, 289, 290, 291, 292, 293, 294, 295, 296, 297, 298, 299, 300, 301, 302, 303, 304, 305, 306, 307, 308, 309, 310, 311, 312, 313, 314, 315, 316, 317, 318, 319, 320, 321, 322, 323, 324, 325, 326, 327, 328, 329, 330, 331, 332, 333, 334, 335, 336, 337, 338, 339, 340, 341, 342, 343, 344, 345, 346, 347, 348, 349, 350, 351, 352, 353, 354, 355, 356, 357, 358, 359, 360, 361, 362, 363, 364, 365, 366, 367, 368, 369, 370, 371, 372, 373, 374, 375, 376, 377, 378, 379, 380, 381, 382, 383, 384, 385, 386, 387, 388, 389, 390, 391, 392, 393, 394, 395, 396, 397],
      "AcquisitionTime": ["120654.655000", "120656.145000", "120657.635000", "120659.125000", "120700.615000", "120702.105000", "120703.595000", "120705.085000", "120706.575000", "120708.065000", "120709.555000", "120711.045000", "120712.535000", "120714.025000", "120715.515000", "120717.005000", "120718.495000", "120719.985000", "120721.475000", "120722.965000", "120724.455000", "120725.945000", "120727.435000", "120728.925000", "120730.415000", "120731.905000", "120733.395000", "120734.885000", "120736.375000", "120737.865000", "120739.355000", "120740.845000", "120742.335000", "120743.825000", "120745.315000", "120746.805000", "120748.295000", "120749.785000", "120751.275000", "120752.765000", "120754.255000", "120755.745000", "120757.235000", "120758.725000", "120800.215000", "120801.705000", "120803.195000", "120804.685000", "120806.175000", "120807.665000", "120809.155000", "120810.645000", "120812.135000", "120813.625000", "120815.115000", "120816.605000", "120818.095000", "120819.585000", "120821.075000", "120822.565000", "120824.055000", "120825.545000", "120827.035000", "120828.525000", "120830.015000", "120831.505000", "120832.995000", "120834.485000", "120835.975000", "120837.465000", "120838.955000", "120840.445000", "120841.935000", "120843.425000", "120844.915000", "120846.405000", "120847.895000", "120849.385000", "120850.875000", "120852.365000", "120853.855000", "120855.345000", "120856.835000", "120858.325000", "120859.815000", "120901.305000", "120902.795000", "120904.285000", "120905.775000", "120907.265000", "120908.755000", "120910.245000", "120911.735000", "120913.225000", "120914.715000", "120916.205000", "120917.695000", "120919.185000", "120920.675000", "120922.165000", "120923.655000", "120925.145000", "120926.635000", "120928.125000", "120929.615000", "120931.105000", "120932.595000", "120934.085000", "120935.575000", "120937.065000", "120938.555000", "120940.045000", "120941.535000", "120943.025000", "120944.515000", "120946.005000", "120947.495000", "120948.985000", "120950.475000", "120951.965000", "120953.455000", "120954.945000", "120956.435000", "120957.925000", "120959.415000", "121000.905000", "121002.395000", "121003.885000", "121005.375000", "121006.865000", "121008.355000", "121009.845000", "121011.335000", "121012.825000", "121014.315000", "121015.805000", "121017.295000", "121018.785000", "121020.275000", "121021.765000", "121023.255000", "121024.745000", "121026.235000", "121027.725000", "121029.215000", "121030.705000", "121032.195000", "121033.685000", "121035.175000", "121036.665000", "121038.155000", "121039.645000", "121041.135000", "121042.625000", "121044.115000", "121045.605000", "121047.095000", "121048.585000", "121050.075000", "121051.565000", "121053.055000", "121054.545000", "121056.035000", "121057.525000", "121059.015000", "121100.505000", "121101.995000", "121103.485000", "121104.975000", "121106.465000", "121107.955000", "121109.445000", "121110.935000", "121112.425000", "121113.915000", "121115.405000", "121116.895000", "121118.385000", "121119.875000", "121121.365000", "121122.855000", "121124.345000", "121125.835000", "121127.325000", "121128.815000", "121130.305000", "121131.795000", "121133.285000", "121134.775000", "121136.265000", "121137.755000", "121139.245000", "121140.735000", "121142.225000", "121143.715000", "121145.205000", "121146.695000", "121148.185000", "121149.675000", "121151.165000", "121152.655000", "121154.145000", "121155.635000", "121157.125000", "121158.615000", "121200.105000", "121201.595000", "121203.085000", "121204.575000", "121206.065000", "121207.555000", "121209.045000", "121210.535000", "121212.025000", "121213.515000", "121215.005000", "121216.495000", "121217.985000", "121219.475000", "121220.965000", "121222.455000", "121223.945000", "121225.435000", "121226.925000", "121228.415000", "121229.905000", "121231.395000", "121232.885000", "121234.375000", "121235.865000", "121237.355000", "121238.845000", "121240.335000", "121241.825000", "121243.315000", "121244.805000", "121246.295000", "121247.785000", "121249.275000", "121250.765000", "121252.255000", "121253.745000", "121255.235000", "121256.725000", "121258.215000", "121259.705000", "121301.195000", "121302.685000", "121304.175000", "121305.665000", "121307.155000", "121308.645000", "121310.135000", "121311.625000", "121313.115000", "121314.605000", "121316.095000", "121317.585000", "121319.075000", "121320.565000", "121322.055000", "121323.545000", "121325.035000", "121326.525000", "121328.015000", "121329.505000", "121330.995000", "121332.485000", "121333.975000", "121335.465000", "121336.955000", "121338.445000", "121339.935000", "121341.425000", "121342.915000", "121344.405000", "121345.895000", "121347.385000", "121348.875000", "121350.365000", "121351.855000", "121353.345000", "121354.835000", "121356.325000", "121357.815000", "121359.305000", "121400.795000", "121402.285000", "121403.775000", "121405.265000", "121406.755000", "121408.245000", "121409.735000", "121411.225000", "121412.715000", "121414.205000", "121415.695000", "121417.185000", "121418.675000", "121420.165000", "121421.655000", "121423.145000", "121424.635000", "121426.125000", "121427.615000", "121429.105000", "121430.595000", "121432.085000", "121433.575000", "121435.065000", "121436.555000", "121438.045000", "121439.535000", "121441.025000", "121442.515000", "121444.005000", "121445.495000", "121446.985000", "121448.475000", "121449.965000", "121451.455000", "121452.945000", "121454.435000", "121455.925000", "121457.415000", "121458.905000", "121500.395000", "121501.885000", "121503.375000", "121504.865000", "121506.355000", "121507.845000", "121509.335000", "121510.825000", "121512.315000", "121513.805000", "121515.295000", "121516.785000", "121518.275000", "121519.765000", "121521.255000", "121522.745000", "121524.235000", "121525.725000", "121527.215000", "121528.705000", "121530.195000", "121531.685000", "121533.175000", "121534.665000", "121536.155000", "121537.645000", "121539.135000", "121540.625000", "121542.115000", "121543.605000", "121545.095000", "121546.585000", "121548.075000", "121549.565000", "121551.055000", "121552.545000", "121554.035000", "121555.525000", "121557.015000", "121558.505000", "121559.995000", "121601.485000", "121602.975000", "121604.465000", "121605.955000", "121607.445000", "121608.935000", "121610.425000", "121611.915000", "121613.405000", "121614.895000", "121616.385000", "121617.875000", "121619.365000", "121620.855000", "121622.345000", "121623.835000", "121625.325000", "121626.815000", "121628.305000", "121629.795000", "121631.285000", "121632.775000", "121634.265000", "121635.755000", "121637.245000", "121638.735000", "121640.225000", "121641.715000", "121643.205000", "121644.695000"],
      "ContentTime": ["120806.700000", "120806.709000", "120806.713000", "120806.716000", "120806.720000", "120806.723000", "120806.727000", "120806.730000", "120806.733000", "120806.737000", "120806.740000", "120806.743000", "120806.747000", "120806.750000", "120806.753000", "120806.763000", "120806.766000", "120806.769000", "120806.773000", "120806.777000", "120806.780000", "120826.664000", "120826.668000", "120826.671000", "120826.674000", "120826.678000", "120826.681000", "120826.684000", "120826.687000", "120826.691000", "120826.694000", "120826.697000", "120826.701000", "120826.715000", "120826.719000", "120826.722000", "120826.725000", "120826.729000", "120826.732000", "120826.735000", "120826.738000", "120846.664000", "120846.668000", "120846.696000", "120846.699000", "120846.730000", "120846.733000", "120846.754000", "120846.758000", "120846.761000", "120846.775000", "120846.778000", "120846.782000", "120846.785000", "120846.788000", "120846.792000", "120846.795000", "120846.799000", "120846.802000", "120846.805000", "120846.808000", "120906.664000", "120906.668000", "120906.671000", "120906.674000", "120906.678000", "120906.681000", "120906.684000", "120906.687000", "120906.691000", "120906.694000", "120906.698000", "120906.701000", "120906.704000", "120906.708000", "120906.711000", "120906.714000", "120906.717000", "120906.721000", "120906.724000", "120906.727000", "120906.731000", "120946.663000", "120946.671000", "120946.675000", "120946.678000", "120946.682000", "120946.686000", "120946.689000", "120946.703000", "120946.706000", "120946.709000", "120946.713000", "120946.716000", "120946.719000", "120946.723000", "120946.726000", "120946.729000", "120946.732000", "120946.736000", "120946.739000", "120946.743000", "120946.746000", "120946.752000", "120946.756000", "120946.759000", "120946.763000", "120946.766000", "120946.770000", "120946.773000", "120946.777000", "120946.780000", "120946.784000", "120946.787000", "121026.663000", "121026.667000", "121026.670000", "121026.674000", "121026.677000", "121026.694000", "121026.705000", "121026.708000", "121026.712000", "121026.715000", "121026.718000", "121026.722000", "121026.725000", "121026.728000", "121026.732000", "121026.735000", "121026.738000", "121026.741000", "121026.745000", "121026.748000", "121026.751000", "121026.755000", "121026.758000", "121026.761000", "121026.765000", "121026.768000", "121026.771000", "121106.664000", "121106.676000", "121106.679000", "121106.683000", "121106.686000", "121106.690000", "121106.693000", "121106.696000", "121106.700000", "121106.703000", "121106.707000", "121106.710000", "121106.713000", "121106.717000", "121106.720000", "121106.738000", "121106.741000", "121106.745000", "121106.748000", "121106.752000", "121106.755000", "121106.758000", "121106.762000", "121106.765000", "121106.768000", "121106.772000", "121106.775000", "121146.664000", "121146.668000", "121146.671000", "121146.675000", "121146.678000", "121146.681000", "121146.685000", "121146.688000", "121146.691000", "121146.695000", "121146.698000", "121146.701000", "121146.704000", "121146.708000", "121146.711000", "121146.714000", "121146.718000", "121146.721000", "121146.724000", "121146.727000", "121146.731000", "121146.734000", "121146.737000", "121146.741000", "121146.744000", "121146.747000", "121146.751000", "121226.663000", "121226.667000", "121226.670000", "121226.674000", "121226.677000", "121226.680000", "121226.684000", "121226.687000", "121226.691000", "121226.694000", "121226.697000", "121226.700000", "121226.718000", "121226.721000", "121226.724000", "121226.728000", "121226.731000", "121226.734000", "121226.738000", "121226.741000", "121226.744000", "121226.748000", "121226.751000", "121226.754000", "121226.758000", "121226.761000", "121226.764000", "121306.664000", "121306.674000", "121306.677000", "121306.681000", "121306.684000", "121306.700000", "121306.703000", "121306.706000", "121306.710000", "121306.713000", "121306.716000", "121306.720000", "121306.723000", "121306.727000", "121306.730000", "121306.733000", "121306.736000", "121306.740000", "121306.743000", "121306.747000", "121306.750000", "121306.753000", "121306.757000", "121306.760000", "121306.763000", "121306.767000", "121306.793000", "121346.664000", "121346.668000", "121346.671000", "121346.675000", "121346.678000", "121346.681000", "121346.685000", "121346.689000", "121346.700000", "121346.703000", "121346.706000", "121346.710000", "121346.713000", "121346.716000", "121346.720000", "121346.723000", "121346.726000", "121346.730000", "121346.733000", "121346.736000", "121346.740000", "121346.743000", "121346.747000", "121346.750000", "121346.754000", "121346.757000", "121426.663000", "121426.667000", "121426.670000", "121426.674000", "121426.677000", "121426.680000", "121426.684000", "121426.687000", "121426.691000", "121426.694000", "121426.697000", "121426.704000", "121426.707000", "121426.711000", "121426.714000", "121426.717000", "121426.721000", "121426.724000", "121426.727000", "121426.731000", "121426.734000", "121426.737000", "121426.741000", "121426.744000", "121426.747000", "121426.751000", "121426.754000", "121506.663000", "121506.667000", "121506.670000", "121506.674000", "121506.677000", "121506.685000", "121506.688000", "121506.692000", "121506.695000", "121506.699000", "121506.702000", "121506.705000", "121506.709000", "121506.713000", "121506.716000", "121506.719000", "121506.723000", "121506.726000", "121506.743000", "121506.746000", "121506.749000", "121506.753000", "121506.756000", "121506.759000", "121506.763000", "121506.766000", "121506.774000", "121546.664000", "121546.668000", "121546.671000", "121546.675000", "121546.678000", "121546.682000", "121546.685000", "121546.688000", "121546.692000", "121546.695000", "121546.698000", "121546.702000", "121546.705000", "121546.708000", "121546.712000", "121546.715000", "121546.719000", "121546.722000", "121546.725000", "121546.729000", "121546.732000", "121546.735000", "121546.739000", "121546.742000", "121546.745000", "121546.749000", "121546.752000", "121626.664000", "121626.668000", "121626.671000", "121626.675000", "121626.678000", "121626.681000", "121626.685000", "121626.688000", "121626.694000", "121626.698000", "121626.701000", "121626.704000", "121626.708000", "121626.711000", "121626.714000", "121626.718000", "121626.721000", "121626.724000", "121626.729000", "121626.733000", "121626.736000", "121626.739000", "121626.743000", "121626.746000", "121626.749000", "121626.753000", "121626.756000", "121648.020000", "121648.023000", "121648.026000", "121648.030000", "121648.033000", "121648.036000", "121648.040000", "121648.043000", "121648.055000", "121648.058000", "121648.061000", "121648.073000", "121648.077000", "121648.080000"],
      "InstanceCreationTime": ["120806.700000", "120806.709000", "120806.713000", "120806.716000", "120806.720000", "120806.723000", "120806.727000", "120806.730000", "120806.733000", "120806.737000", "120806.740000", "120806.743000", "120806.747000", "120806.750000", "120806.753000", "120806.763000", "120806.766000", "120806.769000", "120806.773000", "120806.777000", "120806.780000", "120826.664000", "120826.668000", "120826.671000", "120826.674000", "120826.678000", "120826.681000", "120826.684000", "120826.687000", "120826.691000", "120826.694000", "120826.697000", "120826.701000", "120826.715000", "120826.719000", "120826.722000", "120826.725000", "120826.729000", "120826.732000", "120826.735000", "120826.738000", "120846.664000", "120846.668000", "120846.696000", "120846.699000", "120846.730000", "120846.733000", "120846.754000", "120846.758000", "120846.761000", "120846.775000", "120846.778000", "120846.782000", "120846.785000", "120846.788000", "120846.792000", "120846.795000", "120846.799000", "120846.802000", "120846.805000", "120846.808000", "120906.664000", "120906.668000", "120906.671000", "120906.674000", "120906.678000", "120906.681000", "120906.684000", "120906.687000", "120906.691000", "120906.694000", "120906.698000", "120906.701000", "120906.704000", "120906.708000", "120906.711000", "120906.714000", "120906.717000", "120906.721000", "120906.724000", "120906.727000", "120906.731000", "120946.663000", "120946.671000", "120946.675000", "120946.678000", "120946.682000", "120946.686000", "120946.689000", "120946.703000", "120946.706000", "120946.709000", "120946.713000", "120946.716000", "120946.719000", "120946.723000", "120946.726000", "120946.729000", "120946.732000", "120946.736000", "120946.739000", "120946.743000", "120946.746000", "120946.752000", "120946.756000", "120946.759000", "120946.763000", "120946.766000", "120946.770000", "120946.773000", "120946.777000", "120946.780000", "120946.784000", "120946.787000", "121026.663000", "121026.667000", "121026.670000", "121026.674000", "121026.677000", "121026.694000", "121026.705000", "121026.708000", "121026.712000", "121026.715000", "121026.718000", "121026.722000", "121026.725000", "121026.728000", "121026.732000", "121026.735000", "121026.738000", "121026.741000", "121026.745000", "121026.748000", "121026.751000", "121026.755000", "121026.758000", "121026.761000", "121026.765000", "121026.768000", "121026.771000", "121106.664000", "121106.676000", "121106.679000", "121106.683000", "121106.686000", "121106.690000", "121106.693000", "121106.696000", "121106.700000", "121106.703000", "121106.707000", "121106.710000", "121106.713000", "121106.717000", "121106.720000", "121106.738000", "121106.741000", "121106.745000", "121106.748000", "121106.752000", "121106.755000", "121106.758000", "121106.762000", "121106.765000", "121106.768000", "121106.772000", "121106.775000", "121146.664000", "121146.668000", "121146.671000", "121146.675000", "121146.678000", "121146.681000", "121146.685000", "121146.688000", "121146.691000", "121146.695000", "121146.698000", "121146.701000", "121146.704000", "121146.708000", "121146.711000", "121146.714000", "121146.718000", "121146.721000", "121146.724000", "121146.727000", "121146.731000", "121146.734000", "121146.737000", "121146.741000", "121146.744000", "121146.747000", "121146.751000", "121226.663000", "121226.667000", "121226.670000", "121226.674000", "121226.677000", "121226.680000", "121226.684000", "121226.687000", "121226.691000", "121226.694000", "121226.697000", "121226.700000", "121226.718000", "121226.721000", "121226.724000", "121226.728000", "121226.731000", "121226.734000", "121226.738000", "121226.741000", "121226.744000", "121226.748000", "121226.751000", "121226.754000", "121226.758000", "121226.761000", "121226.764000", "121306.664000", "121306.674000", "121306.677000", "121306.681000", "121306.684000", "121306.700000", "121306.703000", "121306.706000", "121306.710000", "121306.713000", "121306.716000", "121306.720000", "121306.723000", "121306.727000", "121306.730000", "121306.733000", "121306.736000", "121306.740000", "121306.743000", "121306.747000", "121306.750000", "121306.753000", "121306.757000", "121306.760000", "121306.763000", "121306.767000", "121306.793000", "121346.664000", "121346.668000", "121346.671000", "121346.675000", "121346.678000", "121346.681000", "121346.685000", "121346.689000", "121346.700000", "121346.703000", "121346.706000", "121346.710000", "121346.713000", "121346.716000", "121346.720000", "121346.723000", "121346.726000", "121346.730000", "121346.733000", "121346.736000", "121346.740000", "121346.743000", "121346.747000", "121346.750000", "121346.754000", "121346.757000", "121426.663000", "121426.667000", "121426.670000", "121426.674000", "121426.677000", "121426.680000", "121426.684000", "121426.687000", "121426.691000", "121426.694000", "121426.697000", "121426.704000", "121426.707000", "121426.711000", "121426.714000", "121426.717000", "121426.721000", "121426.724000", "121426.727000", "121426.731000", "121426.734000", "121426.737000", "121426.741000", "121426.744000", "121426.747000", "121426.751000", "121426.754000", "121506.663000", "121506.667000", "121506.670000", "121506.674000", "121506.677000", "121506.685000", "121506.688000", "121506.692000", "121506.695000", "121506.699000", "121506.702000", "121506.705000", "121506.709000", "121506.713000", "121506.716000", "121506.719000", "121506.723000", "121506.726000", "121506.743000", "121506.746000", "121506.749000", "121506.753000", "121506.756000", "121506.759000", "121506.763000", "121506.766000", "121506.774000", "121546.664000", "121546.668000", "121546.671000", "121546.675000", "121546.678000", "121546.682000", "121546.685000", "121546.688000", "121546.692000", "121546.695000", "121546.698000", "121546.702000", "121546.705000", "121546.708000", "121546.712000", "121546.715000", "121546.719000", "121546.722000", "121546.725000", "121546.729000", "121546.732000", "121546.735000", "121546.739000", "121546.742000", "121546.745000", "121546.749000", "121546.752000", "121626.664000", "121626.668000", "121626.671000", "121626.675000", "121626.678000", "121626.681000", "121626.685000", "121626.688000", "121626.694000", "121626.698000", "121626.701000", "121626.704000", "121626.708000", "121626.711000", "121626.714000", "121626.718000", "121626.721000", "121626.724000", "121626.729000", "121626.733000", "121626.736000", "121626.739000", "121626.743000", "121626.746000", "121626.749000", "121626.753000", "121626.756000", "121648.020000", "121648.023000", "121648.026000", "121648.030000", "121648.033000", "121648.036000", "121648.040000", "121648.043000", "121648.055000", "121648.058000", "121648.061000", "121648.073000", "121648.077000", "121648.080000"],
      "InstanceNumber": [1, 2, 3, 4, 5, 6, 7, 8, 9, 10, 11, 12, 13, 14, 15, 16, 17, 18, 19, 20, 21, 22, 23, 24, 25, 26, 27, 28, 29, 30, 31, 32, 33, 34, 35, 36, 37, 38, 39, 40, 41, 42, 43, 44, 45, 46, 47, 48, 49, 50, 51, 52, 53, 54, 55, 56, 57, 58, 59, 60, 61, 62, 63, 64, 65, 66, 67, 68, 69, 70, 71, 72, 73, 74, 75, 76, 77, 78, 79, 80, 81, 82, 83, 84, 85, 86, 87, 88, 89, 90, 91, 92, 93, 94, 95, 96, 97, 98, 99, 100, 101, 102, 103, 104, 105, 106, 107, 108, 109, 110, 111, 112, 113, 114, 115, 116, 117, 118, 119, 120, 121, 122, 123, 124, 125, 126, 127, 128, 129, 130, 131, 132, 133, 134, 135, 136, 137, 138, 139, 140, 141, 142, 143, 144, 145, 146, 147, 148, 149, 150, 151, 152, 153, 154, 155, 156, 157, 158, 159, 160, 161, 162, 163, 164, 165, 166, 167, 168, 169, 170, 171, 172, 173, 174, 175, 176, 177, 178, 179, 180, 181, 182, 183, 184, 185, 186, 187, 188, 189, 190, 191, 192, 193, 194, 195, 196, 197, 198, 199, 200, 201, 202, 203, 204, 205, 206, 207, 208, 209, 210, 211, 212, 213, 214, 215, 216, 217, 218, 219, 220, 221, 222, 223, 224, 225, 226, 227, 228, 229, 230, 231, 232, 233, 234, 235, 236, 237, 238, 239, 240, 241, 242, 243, 244, 245, 246, 247, 248, 249, 250, 251, 252, 253, 254, 255, 256, 257, 258, 259, 260, 261, 262, 263, 264, 265, 266, 267, 268, 269, 270, 271, 272, 273, 274, 275, 276, 277, 278, 279, 280, 281, 282, 283, 284, 285, 286, 287, 288, 289, 290, 291, 292, 293, 294, 295, 296, 297, 298, 299, 300, 301, 302, 303, 304, 305, 306, 307, 308, 309, 310, 311, 312, 313, 314, 315, 316, 317, 318, 319, 320, 321, 322, 323, 324, 325, 326, 327, 328, 329, 330, 331, 332, 333, 334, 335, 336, 337, 338, 339, 340, 341, 342, 343, 344, 345, 346, 347, 348, 349, 350, 351, 352, 353, 354, 355, 356, 357, 358, 359, 360, 361, 362, 363, 364, 365, 366, 367, 368, 369, 370, 371, 372, 373, 374, 375, 376, 377, 378, 379, 380, 381, 382, 383, 384, 385, 386, 387, 388, 389, 390, 391, 392, 393, 394, 395, 396, 397],
