{
  "AcquisitionMatrixPE": 104,
  "AcquisitionNumber": 1,
  "AcquisitionTime": "11:39:15.870000",
  "BandwidthPerPixelPhaseEncode": 17.17,
  "BaseResolution": 104,
  "BodyPartExamined": "BRAIN",
  "CoilCombinationMethod": "Sum of Squares",
  "ConsistencyInfo": "N4_VE11C_LATEST_20160120",
  "ConversionSoftware": "dcm2niix",
  "ConversionSoftwareVersion": "v1.0.20220505",
  "DerivedVendorReportedEchoSpacing": 0.000560011,
  "DeviceSerialNumber": "167006",
  "DwellTime": 2.1e-06,
  "EchoTime": 0.037,
  "EchoTrainLength": 104,
  "EffectiveEchoSpacing": 0.000560011,
  "FlipAngle": 52,
  "HeudiconvVersion": "0.5.3.post811+g6206e14",
  "ImageComments": "Unaliased MB4/PE3/LB",
  "ImageOrientationPatientDICOM": [0.996363, 0.0719648, 0.0456198, -0.051171, 0.933482, -0.354954],
  "ImageOrientationText": "Tra>Cor(-20.6)>Sag(3.9)",
  "ImageType": [
    "ORIGINAL",
    "PRIMARY",
    "M",
    "MB",
    "ND",
    "MOSAIC"
],
  "ImagingFrequency": 123.259,
  "InPlanePhaseEncodingDirectionDICOM": "COL",
  "InstitutionAddress": "Chemin Queen-Mary 4565,Montreal,District,CA,H3W 1W5",
  "InstitutionName": "IUGM",
  "InstitutionalDepartmentName": "Department",
  "MRAcquisitionType": "2D",
  "MagneticFieldStrength": 3,
  "Manufacturer": "Siemens",
  "ManufacturersModelName": "Prisma_fit",
  "MatrixCoilMode": "SENSE",
  "Modality": "MR",
  "MultibandAccelerationFactor": 4,
  "PartialFourier": 1,
  "PatientPosition": "HFS",
  "PercentPhaseFOV": 100,
  "PercentSampling": 100,
  "PhaseEncodingDirection": "j",
  "PhaseEncodingSteps": 104,
  "PhaseResolution": 1,
  "PixelBandwidth": 2290,
  "ProcedureStepDescription": "games^mario3",
  "ProtocolName": "func_task-mario3_run-01",
  "PulseSequenceDetails": "%CustomerSeq%\\cmrr_mbep2d_bold",
  "ReceiveCoilActiveElements": "HC1-7;NC1,2",
  "ReceiveCoilName": "HeadNeck_64",
  "ReconMatrixPE": 104,
  "RepetitionTime": 1.49,
  "SAR": 0.0508668,
  "ScanOptions": "FS",
  "ScanningSequence": "EP",
  "SequenceName": "epfid2d1_104",
  "SequenceVariant": "SK\\SS",
  "SeriesDescription": "func_task-mario3_run-01",
  "SeriesNumber": 10,
  "ShimSetting": [610, -7247, -8814, 603, 116, -59, -54, 81],
  "SliceThickness": 2,
  "SliceTiming": [0, 0.7825, 0.0975, 0.88, 0.195, 0.9775, 0.2925, 1.0775, 0.39, 1.175, 0.4875, 1.2725, 0.5875, 1.37, 0.685, 0, 0.7825, 0.0975, 0.88, 0.195, 0.9775, 0.2925, 1.0775, 0.39, 1.175, 0.4875, 1.2725, 0.5875, 1.37, 0.685, 0, 0.7825, 0.0975, 0.88, 0.195, 0.9775, 0.2925, 1.0775, 0.39, 1.175, 0.4875, 1.2725, 0.5875, 1.37, 0.685, 0, 0.7825, 0.0975, 0.88, 0.195, 0.9775, 0.2925, 1.0775, 0.39, 1.175, 0.4875, 1.2725, 0.5875, 1.37, 0.685],
  "SoftwareVersions": "syngo MR E11",
  "SpacingBetweenSlices": 2,
  "StationName": "MRC35049",
  "TaskName": "mario3",
  "TotalReadoutTime": 0.0576811,
  "TxRefAmp": 252.112,
  "WipMemBlock": "3decb948-b170-4070-84dd-2bb3f3ebc67b||Sequence: R017 ve11c/master r/75a17815+; Jun 28 2022 16:32:11 by eja",
  "dcmmeta_affine": [
    [-1.9927266836166382, -0.10234203189611435, 0.13625892996788025, 109.39710235595703],
    [-0.14392957091331482, 1.8669646978378296, -0.7026572823524475, -52.502567291259766],
    [0.09123962372541428, 0.7099078297615051, 1.8675401210784912, -63.4535026550293],
    [0.0, 0.0, 0.0, 1.0]
],
  "dcmmeta_reorient_transform": [
    [0.0, -1.0, 0.0, 103.0],
    [1.0, 0.0, 0.0, 0.0],
    [0.0, 0.0, 1.0, 0.0],
    [0.0, 0.0, 0.0, 1.0]
],
  "dcmmeta_shape": [104, 104, 60, 304],
  "dcmmeta_slice_dim": 2,
  "dcmmeta_version": 0.6,
  "global": {
    "const": {
      "AcquisitionMatrix": [104, 0, 0, 104],
      "AngioFlag": "N",
      "BitsAllocated": 16,
      "BitsStored": 16,
      "BodyPartExamined": "BRAIN",
      "Columns": 832,
      "EchoNumbers": 1,
      "EchoTime": 37.0,
      "EchoTrainLength": 104,
      "FlipAngle": 52.0,
      "HighBit": 15,
      "ImageOrientationPatient": [0.9963633386832, 0.0719647835097, 0.04561981217057, -0.0511710144504, 0.93348232471718, -0.354953907882],
      "ImagePositionPatient": [-786.95588280455, -871.76028460263, 234.86222350658],
      "ImageType": [
        "ORIGINAL",
        "PRIMARY",
        "M",
        "MB",
        "ND",
        "MOSAIC"
],
      "ImagedNucleus": "1H",
      "ImagingFrequency": 123.259247,
      "InPlanePhaseEncodingDirection": "COL",
      "MRAcquisitionType": "2D",
      "MagneticFieldStrength": 3.0,
      "Manufacturer": "SIEMENS",
      "ManufacturerModelName": "Prisma_fit",
      "Modality": "MR",
      "NumberOfAverages": 1.0,
      "NumberOfPhaseEncodingSteps": 104,
      "PercentPhaseFieldOfView": 100.0,
      "PercentSampling": 100.0,
      "PerformedProcedureStepStartTime": "113336.628000",
      "PhotometricInterpretation": "MONOCHROME2",
      "PixelBandwidth": 2290.0,
      "PixelRepresentation": 0,
      "PixelSpacing": [2.0, 2.0],
      "ProtocolName": "func_task-mario3_run-01",
      "RepetitionTime": 1490.0,
      "Rows": 832,
      "SAR": 0.05086682170868,
      "SamplesPerPixel": 1,
      "ScanOptions": "FS",
      "ScanningSequence": "EP",
      "SequenceName": "epfid2d1_104",
      "SequenceVariant": [
        "SK",
        "SS"
],
      "SeriesDescription": "func_task-mario3_run-01",
      "SeriesNumber": 10,
      "SeriesTime": "114026.693000",
      "SliceLocation": -33.352159530098,
      "SliceThickness": 2.0,
      "SmallestImagePixelValue": 0,
      "SoftwareVersions": "syngo MR E11",
      "SpacingBetweenSlices": 1.9999999461855,
      "SpecificCharacterSet": "ISO_IR 100",
      "StudyID": "1",
      "StudyTime": "113336.548000",
      "TransmitCoilName": "Body",
      "VariableFlipAngleFlag": "N",
      "WindowCenter": 9598.0,
      "WindowCenterWidthExplanation": "WINDOW1",
      "WindowWidth": 16868.0,
      "dBdt": 0.0},
    "slices": {}
  },
  "time": {
    "samples": {
      "AcquisitionNumber": [1, 2, 3, 4, 5, 6, 7, 8, 9, 10, 11, 12, 13, 14, 15, 16, 17, 18, 19, 20, 21, 22, 23, 24, 25, 26, 27, 28, 29, 30, 31, 32, 33, 34, 35, 36, 37, 38, 39, 40, 41, 42, 43, 44, 45, 46, 47, 48, 49, 50, 51, 52, 53, 54, 55, 56, 57, 58, 59, 60, 61, 62, 63, 64, 65, 66, 67, 68, 69, 70, 71, 72, 73, 74, 75, 76, 77, 78, 79, 80, 81, 82, 83, 84, 85, 86, 87, 88, 89, 90, 91, 92, 93, 94, 95, 96, 97, 98, 99, 100, 101, 102, 103, 104, 105, 106, 107, 108, 109, 110, 111, 112, 113, 114, 115, 116, 117, 118, 119, 120, 121, 122, 123, 124, 125, 126, 127, 128, 129, 130, 131, 132, 133, 134, 135, 136, 137, 138, 139, 140, 141, 142, 143, 144, 145, 146, 147, 148, 149, 150, 151, 152, 153, 154, 155, 156, 157, 158, 159, 160, 161, 162, 163, 164, 165, 166, 167, 168, 169, 170, 171, 172, 173, 174, 175, 176, 177, 178, 179, 180, 181, 182, 183, 184, 185, 186, 187, 188, 189, 190, 191, 192, 193, 194, 195, 196, 197, 198, 199, 200, 201, 202, 203, 204, 205, 206, 207, 208, 209, 210, 211, 212, 213, 214, 215, 216, 217, 218, 219, 220, 221, 222, 223, 224, 225, 226, 227, 228, 229, 230, 231, 232, 233, 234, 235, 236, 237, 238, 239, 240, 241, 242, 243, 244, 245, 246, 247, 248, 249, 250, 251, 252, 253, 254, 255, 256, 257, 258, 259, 260, 261, 262, 263, 264, 265, 266, 267, 268, 269, 270, 271, 272, 273, 274, 275, 276, 277, 278, 279, 280, 281, 282, 283, 284, 285, 286, 287, 288, 289, 290, 291, 292, 293, 294, 295, 296, 297, 298, 299, 300, 301, 302, 303, 304],
      "AcquisitionTime": ["113915.870000", "113917.360000", "113918.850000", "113920.340000", "113921.830000", "113923.320000", "113924.810000", "113926.300000", "113927.790000", "113929.280000", "113930.770000", "113932.260000", "113933.750000", "113935.240000", "113936.730000", "113938.220000", "113939.710000", "113941.200000", "113942.690000", "113944.180000", "113945.670000", "113947.160000", "113948.650000", "113950.140000", "113951.630000", "113953.120000", "113954.610000", "113956.100000", "113957.590000", "113959.080000", "114000.570000", "114002.060000", "114003.550000", "114005.040000", "114006.530000", "114008.020000", "114009.510000", "114011.000000", "114012.490000", "114013.980000", "114015.470000", "114016.960000", "114018.450000", "114019.940000", "114021.430000", "114022.920000", "114024.410000", "114025.900000", "114027.390000", "114028.880000", "114030.370000", "114031.860000", "114033.350000", "114034.840000", "114036.330000", "114037.820000", "114039.310000", "114040.800000", "114042.290000", "114043.780000", "114045.270000", "114046.760000", "114048.250000", "114049.740000", "114051.230000", "114052.720000", "114054.210000", "114055.700000", "114057.190000", "114058.680000", "114100.170000", "114101.660000", "114103.150000", "114104.640000", "114106.130000", "114107.620000", "114109.110000", "114110.600000", "114112.090000", "114113.580000", "114115.070000", "114116.560000", "114118.050000", "114119.540000", "114121.030000", "114122.520000", "114124.010000", "114125.500000", "114126.990000", "114128.480000", "114129.970000", "114131.460000", "114132.950000", "114134.440000", "114135.930000", "114137.420000", "114138.910000", "114140.400000", "114141.890000", "114143.380000", "114144.870000", "114146.360000", "114147.850000", "114149.340000", "114150.830000", "114152.320000", "114153.810000", "114155.300000", "114156.790000", "114158.280000", "114159.770000", "114201.260000", "114202.750000", "114204.240000", "114205.730000", "114207.220000", "114208.710000", "114210.200000", "114211.690000", "114213.180000", "114214.670000", "114216.160000", "114217.650000", "114219.140000", "114220.630000", "114222.120000", "114223.610000", "114225.100000", "114226.590000", "114228.080000", "114229.570000", "114231.060000", "114232.550000", "114234.040000", "114235.530000", "114237.020000", "114238.510000", "114240.000000", "114241.490000", "114242.980000", "114244.470000", "114245.960000", "114247.450000", "114248.940000", "114250.430000", "114251.920000", "114253.410000", "114254.900000", "114256.390000", "114257.880000", "114259.370000", "114300.860000", "114302.350000", "114303.840000", "114305.330000", "114306.820000", "114308.310000", "114309.800000", "114311.290000", "114312.780000", "114314.270000", "114315.760000", "114317.250000", "114318.740000", "114320.230000", "114321.720000", "114323.210000", "114324.700000", "114326.190000", "114327.680000", "114329.170000", "114330.660000", "114332.150000", "114333.640000", "114335.130000", "114336.620000", "114338.110000", "114339.600000", "114341.090000", "114342.580000", "114344.070000", "114345.560000", "114347.050000", "114348.540000", "114350.030000", "114351.520000", "114353.010000", "114354.500000", "114355.990000", "114357.480000", "114358.970000", "114400.460000", "114401.950000", "114403.440000", "114404.930000", "114406.420000", "114407.910000", "114409.400000", "114410.890000", "114412.380000", "114413.870000", "114415.360000", "114416.850000", "114418.340000", "114419.830000", "114421.320000", "114422.810000", "114424.300000", "114425.790000", "114427.280000", "114428.770000", "114430.260000", "114431.750000", "114433.240000", "114434.730000", "114436.220000", "114437.710000", "114439.200000", "114440.690000", "114442.180000", "114443.670000", "114445.160000", "114446.650000", "114448.140000", "114449.630000", "114451.120000", "114452.610000", "114454.100000", "114455.590000", "114457.080000", "114458.570000", "114500.060000", "114501.550000", "114503.040000", "114504.530000", "114506.020000", "114507.510000", "114509.000000", "114510.490000", "114511.980000", "114513.470000", "114514.960000", "114516.450000", "114517.940000", "114519.430000", "114520.920000", "114522.410000", "114523.900000", "114525.390000", "114526.880000", "114528.370000", "114529.860000", "114531.350000", "114532.840000", "114534.330000", "114535.820000", "114537.310000", "114538.800000", "114540.290000", "114541.780000", "114543.270000", "114544.760000", "114546.250000", "114547.740000", "114549.230000", "114550.720000", "114552.210000", "114553.700000", "114555.190000", "114556.680000", "114558.170000", "114559.660000", "114601.150000", "114602.640000", "114604.130000", "114605.620000", "114607.110000", "114608.600000", "114610.090000", "114611.580000", "114613.070000", "114614.560000", "114616.050000", "114617.540000", "114619.030000", "114620.520000", "114622.010000", "114623.500000", "114624.990000", "114626.480000", "114627.970000", "114629.460000", "114630.950000", "114632.440000", "114633.930000", "114635.420000", "114636.910000", "114638.400000", "114639.890000", "114641.380000", "114642.870000", "114644.360000", "114645.850000", "114647.340000"],
      "ContentTime": ["114026.697000", "114026.700000", "114026.703000", "114026.707000", "114026.710000", "114026.713000", "114026.717000", "114026.720000", "114026.723000", "114026.736000", "114026.740000", "114026.743000", "114026.746000", "114026.749000", "114026.753000", "114026.756000", "114026.759000", "114026.762000", "114026.766000", "114026.769000", "114026.772000", "114046.664000", "114046.668000", "114046.671000", "114046.674000", "114046.677000", "114046.681000", "114046.684000", "114046.687000", "114046.690000", "114046.693000", "114046.697000", "114046.700000", "114046.703000", "114046.707000", "114046.710000", "114046.713000", "114046.716000", "114046.719000", "114046.723000", "114046.726000", "114046.729000", "114106.664000", "114106.668000", "114106.671000", "114106.674000", "114106.677000", "114106.681000", "114106.684000", "114106.687000", "114106.690000", "114106.694000", "114106.697000", "114106.700000", "114106.703000", "114106.706000", "114106.710000", "114106.713000", "114106.716000", "114106.719000", "114106.723000", "114106.726000", "114126.664000", "114126.668000", "114126.671000", "114126.674000", "114126.677000", "114126.681000", "114126.684000", "114126.687000", "114126.690000", "114126.694000", "114126.697000", "114126.700000", "114126.703000", "114126.707000", "114126.710000", "114126.713000", "114126.716000", "114126.720000", "114126.723000", "114126.726000", "114206.663000", "114206.667000", "114206.670000", "114206.673000", "114206.689000", "114206.694000", "114206.701000", "114206.704000", "114206.708000", "114206.711000", "114206.714000", "114206.717000", "114206.721000", "114206.724000", "114206.727000", "114206.730000", "114206.734000", "114206.737000", "114206.740000", "114206.743000", "114206.747000", "114206.750000", "114206.753000", "114206.757000", "114206.760000", "114206.763000", "114206.766000", "114206.770000", "114206.773000", "114206.776000", "114206.780000", "114246.663000", "114246.667000", "114246.670000", "114246.673000", "114246.676000", "114246.684000", "114246.687000", "114246.691000", "114246.694000", "114246.697000", "114246.700000", "114246.704000", "114246.707000", "114246.710000", "114246.713000", "114246.717000", "114246.720000", "114246.723000", "114246.726000", "114246.730000", "114246.733000", "114246.736000", "114246.739000", "114246.743000", "114246.746000", "114246.749000", "114246.753000", "114326.664000", "114326.668000", "114326.671000", "114326.674000", "114326.678000", "114326.681000", "114326.684000", "114326.688000", "114326.691000", "114326.694000", "114326.697000", "114326.701000", "114326.704000", "114326.707000", "114326.710000", "114326.714000", "114326.717000", "114326.721000", "114326.724000", "114326.727000", "114326.730000", "114326.734000", "114326.737000", "114326.740000", "114326.744000", "114326.747000", "114326.750000", "114406.663000", "114406.667000", "114406.670000", "114406.673000", "114406.677000", "114406.680000", "114406.683000", "114406.687000", "114406.690000", "114406.693000", "114406.697000", "114406.700000", "114406.703000", "114406.706000", "114406.710000", "114406.713000", "114406.716000", "114406.719000", "114406.723000", "114406.726000", "114406.729000", "114406.732000", "114406.736000", "114406.739000", "114406.742000", "114406.745000", "114406.749000", "114446.663000", "114446.667000", "114446.670000", "114446.673000", "114446.677000", "114446.680000", "114446.683000", "114446.686000", "114446.690000", "114446.693000", "114446.696000", "114446.700000", "114446.703000", "114446.706000", "114446.710000", "114446.713000", "114446.716000", "114446.719000", "114446.723000", "114446.726000", "114446.729000", "114446.733000", "114446.736000", "114446.739000", "114446.742000", "114446.746000", "114446.749000", "114526.664000", "114526.668000", "114526.671000", "114526.675000", "114526.678000", "114526.681000", "114526.685000", "114526.688000", "114526.691000", "114526.695000", "114526.698000", "114526.701000", "114526.704000", "114526.708000", "114526.711000", "114526.714000", "114526.718000", "114526.721000", "114526.724000", "114526.727000", "114526.731000", "114526.734000", "114526.737000", "114526.752000", "114526.756000", "114526.759000", "114526.762000", "114606.664000", "114606.668000", "114606.671000", "114606.674000", "114606.678000", "114606.681000", "114606.684000", "114606.688000", "114606.691000", "114606.694000", "114606.697000", "114606.701000", "114606.704000", "114606.707000", "114606.711000", "114606.715000", "114606.718000", "114606.723000", "114606.727000", "114606.731000", "114606.735000", "114606.739000", "114606.742000", "114606.745000", "114606.748000", "114606.752000", "114646.663000", "114646.667000", "114646.670000", "114646.673000", "114646.677000", "114646.680000", "114646.692000", "114646.695000", "114646.698000", "114646.702000", "114646.705000", "114646.708000", "114646.711000", "114646.715000", "114646.718000", "114646.721000", "114646.725000", "114646.728000", "114646.731000", "114646.734000", "114646.738000", "114646.741000", "114646.744000", "114646.747000", "114646.751000", "114646.754000", "114646.757000", "114650.646000", "114650.649000", "114650.652000"],
      "InstanceCreationTime": ["114026.697000", "114026.700000", "114026.703000", "114026.707000", "114026.710000", "114026.713000", "114026.717000", "114026.720000", "114026.723000", "114026.736000", "114026.740000", "114026.743000", "114026.746000", "114026.749000", "114026.753000", "114026.756000", "114026.759000", "114026.762000", "114026.766000", "114026.769000", "114026.772000", "114046.664000", "114046.668000", "114046.671000", "114046.674000", "114046.677000", "114046.681000", "114046.684000", "114046.687000", "114046.690000", "114046.693000", "114046.697000", "114046.700000", "114046.703000", "114046.707000", "114046.710000", "114046.713000", "114046.716000", "114046.719000", "114046.723000", "114046.726000", "114046.729000", "114106.664000", "114106.668000", "114106.671000", "114106.674000", "114106.677000", "114106.681000", "114106.684000", "114106.687000", "114106.690000", "114106.694000", "114106.697000", "114106.700000", "114106.703000", "114106.706000", "114106.710000", "114106.713000", "114106.716000", "114106.719000", "114106.723000", "114106.726000", "114126.664000", "114126.668000", "114126.671000", "114126.674000", "114126.677000", "114126.681000", "114126.684000", "114126.687000", "114126.690000", "114126.694000", "114126.697000", "114126.700000", "114126.703000", "114126.707000", "114126.710000", "114126.713000", "114126.716000", "114126.720000", "114126.723000", "114126.726000", "114206.663000", "114206.667000", "114206.670000", "114206.673000", "114206.689000", "114206.694000", "114206.701000", "114206.704000", "114206.708000", "114206.711000", "114206.714000", "114206.717000", "114206.721000", "114206.724000", "114206.727000", "114206.730000", "114206.734000", "114206.737000", "114206.740000", "114206.743000", "114206.747000", "114206.750000", "114206.753000", "114206.757000", "114206.760000", "114206.763000", "114206.766000", "114206.770000", "114206.773000", "114206.776000", "114206.780000", "114246.663000", "114246.667000", "114246.670000", "114246.673000", "114246.676000", "114246.684000", "114246.687000", "114246.691000", "114246.694000", "114246.697000", "114246.700000", "114246.704000", "114246.707000", "114246.710000", "114246.713000", "114246.717000", "114246.720000", "114246.723000", "114246.726000", "114246.730000", "114246.733000", "114246.736000", "114246.739000", "114246.743000", "114246.746000", "114246.749000", "114246.753000", "114326.664000", "114326.668000", "114326.671000", "114326.674000", "114326.678000", "114326.681000", "114326.684000", "114326.688000", "114326.691000", "114326.694000", "114326.697000", "114326.701000", "114326.704000", "114326.707000", "114326.710000", "114326.714000", "114326.717000", "114326.721000", "114326.724000", "114326.727000", "114326.730000", "114326.734000", "114326.737000", "114326.740000", "114326.744000", "114326.747000", "114326.750000", "114406.663000", "114406.667000", "114406.670000", "114406.673000", "114406.677000", "114406.680000", "114406.683000", "114406.687000", "114406.690000", "114406.693000", "114406.697000", "114406.700000", "114406.703000", "114406.706000", "114406.710000", "114406.713000", "114406.716000", "114406.719000", "114406.723000", "114406.726000", "114406.729000", "114406.732000", "114406.736000", "114406.739000", "114406.742000", "114406.745000", "114406.749000", "114446.663000", "114446.667000", "114446.670000", "114446.673000", "114446.677000", "114446.680000", "114446.683000", "114446.686000", "114446.690000", "114446.693000", "114446.696000", "114446.700000", "114446.703000", "114446.706000", "114446.710000", "114446.713000", "114446.716000", "114446.719000", "114446.723000", "114446.726000", "114446.729000", "114446.733000", "114446.736000", "114446.739000", "114446.742000", "114446.746000", "114446.749000", "114526.664000", "114526.668000", "114526.671000", "114526.675000", "114526.678000", "114526.681000", "114526.685000", "114526.688000", "114526.691000", "114526.695000", "114526.698000", "114526.701000", "114526.704000", "114526.708000", "114526.711000", "114526.714000", "114526.718000", "114526.721000", "114526.724000", "114526.727000", "114526.731000", "114526.734000", "114526.737000", "114526.752000", "114526.756000", "114526.759000", "114526.762000", "114606.664000", "114606.668000", "114606.671000", "114606.674000", "114606.678000", "114606.681000", "114606.684000", "114606.688000", "114606.691000", "114606.694000", "114606.697000", "114606.701000", "114606.704000", "114606.707000", "114606.711000", "114606.715000", "114606.718000", "114606.723000", "114606.727000", "114606.731000", "114606.735000", "114606.739000", "114606.742000", "114606.745000", "114606.748000", "114606.752000", "114646.663000", "114646.667000", "114646.670000", "114646.673000", "114646.677000", "114646.680000", "114646.692000", "114646.695000", "114646.698000", "114646.702000", "114646.705000", "114646.708000", "114646.711000", "114646.715000", "114646.718000", "114646.721000", "114646.725000", "114646.728000", "114646.731000", "114646.734000", "114646.738000", "114646.741000", "114646.744000", "114646.747000", "114646.751000", "114646.754000", "114646.757000", "114650.646000", "114650.649000", "114650.652000"],
      "InstanceNumber": [1, 2, 3, 4, 5, 6, 7, 8, 9, 10, 11, 12, 13, 14, 15, 16, 17, 18, 19, 20, 21, 22, 23, 24, 25, 26, 27, 28, 29, 30, 31, 32, 33, 34, 35, 36, 37, 38, 39, 40, 41, 42, 43, 44, 45, 46, 47, 48, 49, 50, 51, 52, 53, 54, 55, 56, 57, 58, 59, 60, 61, 62, 63, 64, 65, 66, 67, 68, 69, 70, 71, 72, 73, 74, 75, 76, 77, 78, 79, 80, 81, 82, 83, 84, 85, 86, 87, 88, 89, 90, 91, 92, 93, 94, 95, 96, 97, 98, 99, 100, 101, 102, 103, 104, 105, 106, 107, 108, 109, 110, 111, 112, 113, 114, 115, 116, 117, 118, 119, 120, 121, 122, 123, 124, 125, 126, 127, 128, 129, 130, 131, 132, 133, 134, 135, 136, 137, 138, 139, 140, 141, 142, 143, 144, 145, 146, 147, 148, 149, 150, 151, 152, 153, 154, 155, 156, 157, 158, 159, 160, 161, 162, 163, 164, 165, 166, 167, 168, 169, 170, 171, 172, 173, 174, 175, 176, 177, 178, 179, 180, 181, 182, 183, 184, 185, 186, 187, 188, 189, 190, 191, 192, 193, 194, 195, 196, 197, 198, 199, 200, 201, 202, 203, 204, 205, 206, 207, 208, 209, 210, 211, 212, 213, 214, 215, 216, 217, 218, 219, 220, 221, 222, 223, 224, 225, 226, 227, 228, 229, 230, 231, 232, 233, 234, 235, 236, 237, 238, 239, 240, 241, 242, 243, 244, 245, 246, 247, 248, 249, 250, 251, 252, 253, 254, 255, 256, 257, 258, 259, 260, 261, 262, 263, 264, 265, 266, 267, 268, 269, 270, 271, 272, 273, 274, 275, 276, 277, 278, 279, 280, 281, 282, 283, 284, 285, 286, 287, 288, 289, 290, 291, 292, 293, 294, 295, 296, 297, 298, 299, 300, 301, 302, 303, 304],
      "LargestImagePixelValue": [45753, 44798, 45025, 44713, 43978, 44140, 43820, 44186, 44550, 44849, 45287, 43294, 43279, 42853, 41416, 43191, 41861, 42237, 41540, 41341, 40712, 40269, 42032, 43336, 43261, 44334, 43667, 43156, 43833, 43022, 42559, 43372, 43893, 44277, 44181, 45320, 46260, 46627, 46663, 46264, 46778, 46317, 46132, 47301, 46265, 45500, 46814, 45632, 46300, 46131, 45927, 45871, 45923, 45752, 45027, 44777, 43130, 44336, 43065, 43017, 44306, 44677, 46082, 44779, 44792, 43658, 42302, 41548, 42166, 41670, 40242, 42212, 40822, 42044, 42208, 42192, 43152, 41148, 40280, 41758, 40657, 40969, 40645, 40253, 42054, 40605, 41033, 41419, 40480, 39907, 39968, 40347, 40117, 40914, 40673, 42641, 40525, 40424, 40311, 40252, 41522, 40715, 42160, 40622, 42020, 41281, 40007, 40623, 40589, 40577, 41898, 40686, 40334, 40697, 40003, 41127, 39755, 40747, 41340, 41579, 41060, 40719, 40810, 42204, 40313, 41355, 41255, 40805, 41028, 40953, 42956, 44696, 42089, 42097, 43057, 41572, 42558, 42694, 42076, 43559, 42783, 43503, 42510, 41817, 43001, 41459, 42112, 42190, 43019, 41456, 41568, 44161, 42262, 42385, 42520, 41889, 43091, 42427, 43522, 43665, 42264, 43427, 43117, 42768, 43229, 42465, 43102, 43383, 42347, 43022, 42044, 42321, 43723, 42817, 43616, 42737, 43325, 44039, 42545, 43281, 42696, 42285, 43340, 42538, 43973, 42820, 43430, 43273, 43672, 44071, 43691, 45110, 44510, 44238, 44976, 44723, 44547, 45450, 44380, 44357, 44642, 43985, 44812, 43664, 44327, 44639, 44178, 44351, 43860, 44722, 43637, 44021, 43798, 43430, 44119, 43896, 43954, 44855, 44029, 41015, 40934, 41890, 40635, 41610, 45097, 43649, 44296, 44395, 43799, 44588, 45265, 44461, 42916, 44459, 43735, 44273, 44235, 44617, 43969, 43920, 43343, 44092, 44552, 44456, 45704, 44617, 44894, 44229, 50018, 40809, 42543, 41563, 40082, 43900, 44549, 41720, 41662, 45315, 44460, 43820, 44301, 45093, 45642, 45317, 44784, 44379, 43531, 44346, 43150, 44362, 44699, 43697, 44287, 44673, 44464, 44410, 44922, 45203, 46177, 46966, 46538, 46128, 49034, 45039, 44049, 43512, 44121, 44532, 44698, 44983, 45107, 44261, 44777, 44641, 43886, 44182, 42966, 43911, 43800, 43717, 44307, 44138, 43738, 43712]
    },
    "slices": {}
  }
}