{
  "AcquisitionMatrixPE": 104,
  "AcquisitionNumber": 1,
  "AcquisitionTime": "12:06:54.655000",
  "BandwidthPerPixelPhaseEncode": 17.17,
  "BaseResolution": 104,
  "BodyPartExamined": "BRAIN",
  "CoilCombinationMethod": "Sum of Squares",
  "ConsistencyInfo": "N4_VE11C_LATEST_20160120",
  "ConversionSoftware": "dcm2niix",
  "ConversionSoftwareVersion": "v1.0.20220505",
  "DerivedVendorReportedEchoSpacing": 0.000560011,
  "DeviceSerialNumber": "167006",
  "DwellTime": 2.1e-06,
  "EchoTime": 0.037,
  "EchoTime1": 0.037,
  "EchoTime2": 0.001,
  "EchoTrainLength": 104,
  "EffectiveEchoSpacing": 0.000560011,
  "FlipAngle": 52,
  "HeudiconvVersion": "0.5.3.post811+g6206e14",
  "ImageComments": "Unaliased MB4/PE3/LB",
  "ImageOrientationPatientDICOM": [0.996363, 0.0719648, 0.0456198, -0.051171, 0.933482, -0.354954],
  "ImageOrientationText": "Tra>Cor(-20.6)>Sag(3.9)",
  "ImageType": [
    "ORIGINAL",
    "PRIMARY",
    "P",
    "MB",
    "ND",
    "MOSAIC",
    "PHASE"
],
  "ImagingFrequency": 123.259,
  "InPlanePhaseEncodingDirectionDICOM": "COL",
  "InstitutionAddress": "Chemin Queen-Mary 4565,Montreal,District,CA,H3W 1W5",
  "InstitutionName": "IUGM",
  "InstitutionalDepartmentName": "Department",
  "MRAcquisitionType": "2D",
  "MagneticFieldStrength": 3,
  "Manufacturer": "Siemens",
  "ManufacturersModelName": "Prisma_fit",
  "MatrixCoilMode": "SENSE",
  "Modality": "MR",
  "MultibandAccelerationFactor": 4,
  "PartialFourier": 1,
  "PatientPosition": "HFS",
  "PercentPhaseFOV": 100,
  "PercentSampling": 100,
  "PhaseEncodingDirection": "j",
  "PhaseEncodingSteps": 104,
  "PhaseResolution": 1,
  "PixelBandwidth": 2290,
  "ProcedureStepDescription": "games^mario3",
  "ProtocolName": "func_task-mario3_run-04",
  "PulseSequenceDetails": "%CustomerSeq%\\cmrr_mbep2d_bold",
  "ReceiveCoilActiveElements": "HC1-7;NC1,2",
  "ReceiveCoilName": "HeadNeck_64",
  "ReconMatrixPE": 104,
  "RepetitionTime": 1.49,
  "SAR": 0.0508668,
  "ScanOptions": "FS",
  "ScanningSequence": "EP",
  "SequenceName": "epfid2d1_104",
  "SequenceVariant": "SK\\SS",
  "SeriesDescription": "func_task-mario3_run-04",
  "SeriesNumber": 20,
  "ShimSetting": [610, -7247, -8814, 603, 116, -59, -54, 81],
  "SliceThickness": 2,
  "SliceTiming": [0, 0.7825, 0.0975, 0.8825, 0.195, 0.98, 0.2925, 1.0775, 0.3925, 1.175, 0.49, 1.2725, 0.5875, 1.37, 0.685, 0, 0.7825, 0.0975, 0.8825, 0.195, 0.98, 0.2925, 1.0775, 0.3925, 1.175, 0.49, 1.2725, 0.5875, 1.37, 0.685, 0, 0.7825, 0.0975, 0.8825, 0.195, 0.98, 0.2925, 1.0775, 0.3925, 1.175, 0.49, 1.2725, 0.5875, 1.37, 0.685, 0, 0.7825, 0.0975, 0.8825, 0.195, 0.98, 0.2925, 1.0775, 0.3925, 1.175, 0.49, 1.2725, 0.5875, 1.37, 0.685],
  "SoftwareVersions": "syngo MR E11",
  "SpacingBetweenSlices": 2,
  "StationName": "MRC35049",
  "TaskName": "mario3",
  "TotalReadoutTime": 0.0576811,
  "TxRefAmp": 252.112,
  "WipMemBlock": "4772617a-73f6-4166-ae0f-ba5c53b103ad||Sequence: R017 ve11c/master r/75a17815+; Jun 28 2022 16:32:11 by eja",
  "dcmmeta_affine": [
    [-1.9927266836166382, -0.10234203189611435, 0.13625892996788025, 109.39710235595703],
    [-0.14392957091331482, 1.8669646978378296, -0.7026572823524475, -52.502567291259766],
    [0.09123962372541428, 0.7099078297615051, 1.8675401210784912, -63.4535026550293],
    [0.0, 0.0, 0.0, 1.0]
],
  "dcmmeta_reorient_transform": [
    [0.0, -1.0, 0.0, 103.0],
    [1.0, 0.0, 0.0, 0.0],
    [0.0, 0.0, 1.0, 0.0],
    [0.0, 0.0, 0.0, 1.0]
],
  "dcmmeta_shape": [104, 104, 60, 397],
  "dcmmeta_slice_dim": 2,
  "dcmmeta_version": 0.6,
  "global": {
    "const": {
      "AcquisitionMatrix": [104, 0, 0, 104],
      "AngioFlag": "N",
      "BitsAllocated": 16,
      "BitsStored": 16,
      "BodyPartExamined": "BRAIN",
      "Columns": 832,
      "EchoNumbers": 1,
      "EchoTime": 37.0,
      "EchoTrainLength": 104,
      "FlipAngle": 52.0,
      "HighBit": 15,
      "ImageOrientationPatient": [0.9963633386832, 0.0719647835097, 0.04561981217057, -0.0511710144504, 0.93348232471718, -0.354953907882],
      "ImagePositionPatient": [-786.95588280455, -871.76028460263, 234.86222350658],
      "ImageType": [
        "ORIGINAL",
        "PRIMARY",
        "P",
        "MB",
        "ND",
        "MOSAIC"
],
      "ImagedNucleus": "1H",
      "ImagingFrequency": 123.259262,
      "InPlanePhaseEncodingDirection": "COL",
      "LargestImagePixelValue": 4095,
      "MRAcquisitionType": "2D",
      "MagneticFieldStrength": 3.0,
      "Manufacturer": "SIEMENS",
      "ManufacturerModelName": "Prisma_fit",
      "Modality": "MR",
      "NumberOfAverages": 1.0,
      "NumberOfPhaseEncodingSteps": 104,
      "PercentPhaseFieldOfView": 100.0,
      "PercentSampling": 100.0,
      "PerformedProcedureStepStartTime": "113336.628000",
      "PhotometricInterpretation": "MONOCHROME2",
      "PixelBandwidth": 2290.0,
      "PixelRepresentation": 0,
      "PixelSpacing": [2.0, 2.0],
      "ProtocolName": "func_task-mario3_run-04",
      "RepetitionTime": 1490.0,
      "RescaleIntercept": -4096.0,
      "RescaleSlope": 2.0,
      "RescaleType": "US",
      "Rows": 832,
      "SAR": 0.05086682170868,
      "SamplesPerPixel": 1,
      "ScanOptions": "FS",
      "ScanningSequence": "EP",
      "SequenceName": "epfid2d1_104",
      "SequenceVariant": [
        "SK",
        "SS"
],
      "SeriesDescription": "func_task-mario3_run-04",
      "SeriesNumber": 20,
      "SeriesTime": "120806.818000",
      "SliceLocation": -33.352159530098,
      "SliceThickness": 2.0,
      "SmallestImagePixelValue": 0,
      "SoftwareVersions": "syngo MR E11",
      "SpacingBetweenSlices": 1.9999999461855,
      "SpecificCharacterSet": "ISO_IR 100",
      "StudyID": "1",
      "StudyTime": "113336.548000",
      "TransmitCoilName": "Body",
      "VariableFlipAngleFlag": "N",
      "WindowCenterWidthExplanation": "Algo1",
      "dBdt": 0.0},
    "slices": {}
  },
  "time": {
    "samples": {
      "AcquisitionNumber": [1, 2, 3, 4, 5, 6, 7, 8, 9, 10, 11, 12, 13, 14, 15, 16, 17, 18, 19, 20, 21, 22, 23, 24, 25, 26, 27, 28, 29, 30, 31, 32, 33, 34, 35, 36, 37, 38, 39, 40, 41, 42, 43, 44, 45, 46, 47, 48, 49, 50, 51, 52, 53, 54, 55, 56, 57, 58, 59, 60, 61, 62, 63, 64, 65, 66, 67, 68, 69, 70, 71, 72, 73, 74, 75, 76, 77, 78, 79, 80, 81, 82, 83, 84, 85, 86, 87, 88, 89, 90, 91, 92, 93, 94, 95, 96, 97, 98, 99, 100, 101, 102, 103, 104, 105, 106, 107, 108, 109, 110, 111, 112, 113, 114, 115, 116, 117, 118, 119, 120, 121, 122, 123, 124, 125, 126, 127, 128, 129, 130, 131, 132, 133, 134, 135, 136, 137, 138, 139, 140, 141, 142, 143, 144, 145, 146, 147, 148, 149, 150, 151, 152, 153, 154, 155, 156, 157, 158, 159, 160, 161, 162, 163, 164, 165, 166, 167, 168, 169, 170, 171, 172, 173, 174, 175, 176, 177, 178, 179, 180, 181, 182, 183, 184, 185, 186, 187, 188, 189, 190, 191, 192, 193, 194, 195, 196, 197, 198, 199, 200, 201, 202, 203, 204, 205, 206, 207, 208, 209, 210, 211, 212, 213, 214, 215, 216, 217, 218, 219, 220, 221, 222, 223, 224, 225, 226, 227, 228, 229, 230, 231, 232, 233, 234, 235, 236, 237, 238, 239, 240, 241, 242, 243, 244, 245, 246, 247, 248, 249, 250, 251, 252, 253, 254, 255, 256, 257, 258, 259, 260, 261, 262, 263, 264, 265, 266, 267, 268, 269, 270, 271, 272, 273, 274, 275, 276, 277, 278, 279, 280, 281, 282, 283, 284, 285, 286, 287, 288, 289, 290, 291, 292, 293, 294, 295, 296, 297, 298, 299, 300, 301, 302, 303, 304, 305, 306, 307, 308, 309, 310, 311, 312, 313, 314, 315, 316, 317, 318, 319, 320, 321, 322, 323, 324, 325, 326, 327, 328, 329, 330, 331, 332, 333, 334, 335, 336, 337, 338, 339, 340, 341, 342, 343, 344, 345, 346, 347, 348, 349, 350, 351, 352, 353, 354, 355, 356, 357, 358, 359, 360, 361, 362, 363, 364, 365, 366, 367, 368, 369, 370, 371, 372, 373, 374, 375, 376, 377, 378, 379, 380, 381, 382, 383, 384, 385, 386, 387, 388, 389, 390, 391, 392, 393, 394, 395, 396, 397],
      "AcquisitionTime": ["120654.655000", "120656.145000", "120657.635000", "120659.125000", "120700.615000", "120702.105000", "120703.595000", "120705.085000", "120706.575000", "120708.065000", "120709.555000", "120711.045000", "120712.535000", "120714.025000", "120715.515000", "120717.005000", "120718.495000", "120719.985000", "120721.475000", "120722.965000", "120724.455000", "120725.945000", "120727.435000", "120728.925000", "120730.415000", "120731.905000", "120733.395000", "120734.885000", "120736.375000", "120737.865000", "120739.355000", "120740.845000", "120742.335000", "120743.825000", "120745.315000", "120746.805000", "120748.295000", "120749.785000", "120751.275000", "120752.765000", "120754.255000", "120755.745000", "120757.235000", "120758.725000", "120800.215000", "120801.705000", "120803.195000", "120804.685000", "120806.175000", "120807.665000", "120809.155000", "120810.645000", "120812.135000", "120813.625000", "120815.115000", "120816.605000", "120818.095000", "120819.585000", "120821.075000", "120822.565000", "120824.055000", "120825.545000", "120827.035000", "120828.525000", "120830.015000", "120831.505000", "120832.995000", "120834.485000", "120835.975000", "120837.465000", "120838.955000", "120840.445000", "120841.935000", "120843.425000", "120844.915000", "120846.405000", "120847.895000", "120849.385000", "120850.875000", "120852.365000", "120853.855000", "120855.345000", "120856.835000", "120858.325000", "120859.815000", "120901.305000", "120902.795000", "120904.285000", "120905.775000", "120907.265000", "120908.755000", "120910.245000", "120911.735000", "120913.225000", "120914.715000", "120916.205000", "120917.695000", "120919.185000", "120920.675000", "120922.165000", "120923.655000", "120925.145000", "120926.635000", "120928.125000", "120929.615000", "120931.105000", "120932.595000", "120934.085000", "120935.575000", "120937.065000", "120938.555000", "120940.045000", "120941.535000", "120943.025000", "120944.515000", "120946.005000", "120947.495000", "120948.985000", "120950.475000", "120951.965000", "120953.455000", "120954.945000", "120956.435000", "120957.925000", "120959.415000", "121000.905000", "121002.395000", "121003.885000", "121005.375000", "121006.865000", "121008.355000", "121009.845000", "121011.335000", "121012.825000", "121014.315000", "121015.805000", "121017.295000", "121018.785000", "121020.275000", "121021.765000", "121023.255000", "121024.745000", "121026.235000", "121027.725000", "121029.215000", "121030.705000", "121032.195000", "121033.685000", "121035.175000", "121036.665000", "121038.155000", "121039.645000", "121041.135000", "121042.625000", "121044.115000", "121045.605000", "121047.095000", "121048.585000", "121050.075000", "121051.565000", "121053.055000", "121054.545000", "121056.035000", "121057.525000", "121059.015000", "121100.505000", "121101.995000", "121103.485000", "121104.975000", "121106.465000", "121107.955000", "121109.445000", "121110.935000", "121112.425000", "121113.915000", "121115.405000", "121116.895000", "121118.385000", "121119.875000", "121121.365000", "121122.855000", "121124.345000", "121125.835000", "121127.325000", "121128.815000", "121130.305000", "121131.795000", "121133.285000", "121134.775000", "121136.265000", "121137.755000", "121139.245000", "121140.735000", "121142.225000", "121143.715000", "121145.205000", "121146.695000", "121148.185000", "121149.675000", "121151.165000", "121152.655000", "121154.145000", "121155.635000", "121157.125000", "121158.615000", "121200.105000", "121201.595000", "121203.085000", "121204.575000", "121206.065000", "121207.555000", "121209.045000", "121210.535000", "121212.025000", "121213.515000", "121215.005000", "121216.495000", "121217.985000", "121219.475000", "121220.965000", "121222.455000", "121223.945000", "121225.435000", "121226.925000", "121228.415000", "121229.905000", "121231.395000", "121232.885000", "121234.375000", "121235.865000", "121237.355000", "121238.845000", "121240.335000", "121241.825000", "121243.315000", "121244.805000", "121246.295000", "121247.785000", "121249.275000", "121250.765000", "121252.255000", "121253.745000", "121255.235000", "121256.725000", "121258.215000", "121259.705000", "121301.195000", "121302.685000", "121304.175000", "121305.665000", "121307.155000", "121308.645000", "121310.135000", "121311.625000", "121313.115000", "121314.605000", "121316.095000", "121317.585000", "121319.075000", "121320.565000", "121322.055000", "121323.545000", "121325.035000", "121326.525000", "121328.015000", "121329.505000", "121330.995000", "121332.485000", "121333.975000", "121335.465000", "121336.955000", "121338.445000", "121339.935000", "121341.425000", "121342.915000", "121344.405000", "121345.895000", "121347.385000", "121348.875000", "121350.365000", "121351.855000", "121353.345000", "121354.835000", "121356.325000", "121357.815000", "121359.305000", "121400.795000", "121402.285000", "121403.775000", "121405.265000", "121406.755000", "121408.245000", "121409.735000", "121411.225000", "121412.715000", "121414.205000", "121415.695000", "121417.185000", "121418.675000", "121420.165000", "121421.655000", "121423.145000", "121424.635000", "121426.125000", "121427.615000", "121429.105000", "121430.595000", "121432.085000", "121433.575000", "121435.065000", "121436.555000", "121438.045000", "121439.535000", "121441.025000", "121442.515000", "121444.005000", "121445.495000", "121446.985000", "121448.475000", "121449.965000", "121451.455000", "121452.945000", "121454.435000", "121455.925000", "121457.415000", "121458.905000", "121500.395000", "121501.885000", "121503.375000", "121504.865000", "121506.355000", "121507.845000", "121509.335000", "121510.825000", "121512.315000", "121513.805000", "121515.295000", "121516.785000", "121518.275000", "121519.765000", "121521.255000", "121522.745000", "121524.235000", "121525.725000", "121527.215000", "121528.705000", "121530.195000", "121531.685000", "121533.175000", "121534.665000", "121536.155000", "121537.645000", "121539.135000", "121540.625000", "121542.115000", "121543.605000", "121545.095000", "121546.585000", "121548.075000", "121549.565000", "121551.055000", "121552.545000", "121554.035000", "121555.525000", "121557.015000", "121558.505000", "121559.995000", "121601.485000", "121602.975000", "121604.465000", "121605.955000", "121607.445000", "121608.935000", "121610.425000", "121611.915000", "121613.405000", "121614.895000", "121616.385000", "121617.875000", "121619.365000", "121620.855000", "121622.345000", "121623.835000", "121625.325000", "121626.815000", "121628.305000", "121629.795000", "121631.285000", "121632.775000", "121634.265000", "121635.755000", "121637.245000", "121638.735000", "121640.225000", "121641.715000", "121643.205000", "121644.695000"],
      "ContentTime": ["120806.820000", "120806.823000", "120806.826000", "120806.828000", "120806.831000", "120806.833000", "120806.837000", "120806.839000", "120806.842000", "120806.844000", "120806.847000", "120806.849000", "120806.852000", "120806.854000", "120806.857000", "120806.860000", "120806.862000", "120806.864000", "120806.867000", "120806.869000", "120806.872000", "120826.778000", "120826.781000", "120826.788000", "120826.791000", "120826.793000", "120826.796000", "120826.798000", "120826.801000", "120826.803000", "120826.806000", "120826.808000", "120826.810000", "120826.813000", "120826.816000", "120826.818000", "120826.820000", "120826.823000", "120826.826000", "120826.828000", "120826.830000", "120846.852000", "120846.854000", "120846.857000", "120846.859000", "120846.862000", "120846.865000", "120846.867000", "120846.870000", "120846.872000", "120846.875000", "120846.877000", "120846.880000", "120846.882000", "120846.885000", "120846.887000", "120846.890000", "120846.893000", "120846.896000", "120846.898000", "120846.901000", "120906.783000", "120906.785000", "120906.788000", "120906.791000", "120906.793000", "120906.796000", "120906.798000", "120906.801000", "120906.803000", "120906.805000", "120906.808000", "120906.811000", "120906.813000", "120906.815000", "120906.818000", "120906.820000", "120906.823000", "120906.825000", "120906.828000", "120906.830000", "120906.833000", "120947.248000", "120947.251000", "120947.254000", "120947.256000", "120947.259000", "120947.262000", "120947.264000", "120947.267000", "120947.269000", "120947.272000", "120947.274000", "120947.277000", "120947.279000", "120947.282000", "120947.284000", "120947.287000", "120947.289000", "120947.292000", "120947.294000", "120947.297000", "120947.299000", "120947.302000", "120947.305000", "120947.307000", "120947.310000", "120947.313000", "120947.315000", "120947.318000", "120947.321000", "120947.324000", "120947.326000", "120947.329000", "121026.815000", "121026.818000", "121026.821000", "121026.823000", "121026.826000", "121026.828000", "121026.831000", "121026.833000", "121026.836000", "121026.838000", "121026.841000", "121026.843000", "121026.846000", "121026.848000", "121026.851000", "121026.853000", "121026.856000", "121026.858000", "121026.861000", "121026.863000", "121026.866000", "121026.868000", "121026.871000", "121026.873000", "121026.876000", "121026.878000", "121026.881000", "121106.841000", "121106.843000", "121106.846000", "121106.849000", "121106.851000", "121106.854000", "121106.856000", "121106.859000", "121106.862000", "121106.864000", "121106.867000", "121106.870000", "121106.873000", "121106.875000", "121106.878000", "121106.880000", "121106.883000", "121106.886000", "121106.888000", "121106.891000", "121106.893000", "121106.896000", "121106.933000", "121106.935000", "121106.938000", "121106.940000", "121106.951000", "121146.809000", "121146.811000", "121146.828000", "121146.830000", "121146.833000", "121146.835000", "121146.838000", "121146.840000", "121146.843000", "121146.845000", "121146.848000", "121146.850000", "121146.853000", "121146.855000", "121146.858000", "121146.860000", "121146.863000", "121146.873000", "121146.875000", "121146.878000", "121146.880000", "121146.883000", "121146.885000", "121146.888000", "121146.890000", "121146.893000", "121146.895000", "121226.850000", "121226.853000", "121226.856000", "121226.858000", "121226.861000", "121226.873000", "121226.876000", "121226.878000", "121226.881000", "121226.883000", "121226.886000", "121226.888000", "121226.891000", "121226.893000", "121226.896000", "121226.898000", "121226.901000", "121226.903000", "121226.906000", "121226.908000", "121226.911000", "121226.913000", "121226.916000", "121226.918000", "121226.921000", "121226.924000", "121226.926000", "121306.859000", "121306.862000", "121306.873000", "121306.876000", "121306.878000", "121306.881000", "121306.884000", "121306.886000", "121306.889000", "121306.891000", "121306.894000", "121306.896000", "121306.899000", "121306.901000", "121306.904000", "121306.906000", "121306.909000", "121306.911000", "121306.914000", "121306.916000", "121306.919000", "121306.922000", "121306.924000", "121306.927000", "121306.929000", "121306.943000", "121306.946000", "121346.850000", "121346.853000", "121346.855000", "121346.858000", "121346.860000", "121346.863000", "121346.866000", "121346.868000", "121346.871000", "121346.873000", "121346.876000", "121346.878000", "121346.881000", "121346.883000", "121346.886000", "121346.888000", "121346.891000", "121346.899000", "121346.902000", "121346.904000", "121346.907000", "121346.909000", "121346.912000", "121346.914000", "121346.917000", "121346.919000", "121426.802000", "121426.804000", "121426.807000", "121426.809000", "121426.812000", "121426.815000", "121426.817000", "121426.820000", "121426.822000", "121426.825000", "121426.827000", "121426.830000", "121426.833000", "121426.835000", "121426.837000", "121426.840000", "121426.843000", "121426.845000", "121426.848000", "121426.850000", "121426.853000", "121426.855000", "121426.858000", "121426.860000", "121426.863000", "121426.865000", "121426.868000", "121506.831000", "121506.834000", "121506.836000", "121506.839000", "121506.841000", "121506.844000", "121506.847000", "121506.849000", "121506.852000", "121506.854000", "121506.857000", "121506.859000", "121506.862000", "121506.868000", "121506.871000", "121506.874000", "121506.876000", "121506.878000", "121506.881000", "121506.884000", "121506.886000", "121506.889000", "121506.891000", "121506.894000", "121506.896000", "121506.899000", "121506.901000", "121546.817000", "121546.820000", "121546.822000", "121546.825000", "121546.828000", "121546.830000", "121546.832000", "121546.835000", "121546.842000", "121546.844000", "121546.847000", "121546.849000", "121546.852000", "121546.854000", "121546.857000", "121546.859000", "121546.862000", "121546.864000", "121546.867000", "121546.869000", "121546.872000", "121546.874000", "121546.877000", "121546.879000", "121546.882000", "121546.884000", "121546.887000", "121626.808000", "121626.811000", "121626.814000", "121626.816000", "121626.819000", "121626.821000", "121626.824000", "121626.826000", "121626.829000", "121626.831000", "121626.834000", "121626.836000", "121626.839000", "121626.841000", "121626.844000", "121626.846000", "121626.857000", "121626.860000", "121626.863000", "121626.865000", "121626.867000", "121626.870000", "121626.873000", "121626.875000", "121626.878000", "121626.880000", "121626.883000", "121648.147000", "121648.150000", "121648.154000", "121648.157000", "121648.159000", "121648.162000", "121648.164000", "121648.167000", "121648.169000", "121648.172000", "121648.175000", "121648.177000", "121648.180000", "121648.182000"],
      "InstanceCreationTime": ["120806.820000", "120806.823000", "120806.826000", "120806.828000", "120806.831000", "120806.833000", "120806.837000", "120806.839000", "120806.842000", "120806.844000", "120806.847000", "120806.849000", "120806.852000", "120806.854000", "120806.857000", "120806.860000", "120806.862000", "120806.864000", "120806.867000", "120806.869000", "120806.872000", "120826.778000", "120826.781000", "120826.788000", "120826.791000", "120826.793000", "120826.796000", "120826.798000", "120826.801000", "120826.803000", "120826.806000", "120826.808000", "120826.810000", "120826.813000", "120826.816000", "120826.818000", "120826.820000", "120826.823000", "120826.826000", "120826.828000", "120826.830000", "120846.852000", "120846.854000", "120846.857000", "120846.859000", "120846.862000", "120846.865000", "120846.867000", "120846.870000", "120846.872000", "120846.875000", "120846.877000", "120846.880000", "120846.882000", "120846.885000", "120846.887000", "120846.890000", "120846.893000", "120846.896000", "120846.898000", "120846.901000", "120906.783000", "120906.785000", "120906.788000", "120906.791000", "120906.793000", "120906.796000", "120906.798000", "120906.801000", "120906.803000", "120906.805000", "120906.808000", "120906.811000", "120906.813000", "120906.815000", "120906.818000", "120906.820000", "120906.823000", "120906.825000", "120906.828000", "120906.830000", "120906.833000", "120947.248000", "120947.251000", "120947.254000", "120947.256000", "120947.259000", "120947.262000", "120947.264000", "120947.267000", "120947.269000", "120947.272000", "120947.274000", "120947.277000", "120947.279000", "120947.282000", "120947.284000", "120947.287000", "120947.289000", "120947.292000", "120947.294000", "120947.297000", "120947.299000", "120947.302000", "120947.305000", "120947.307000", "120947.310000", "120947.313000", "120947.315000", "120947.318000", "120947.321000", "120947.324000", "120947.326000", "120947.329000", "121026.815000", "121026.818000", "121026.821000", "121026.823000", "121026.826000", "121026.828000", "121026.831000", "121026.833000", "121026.836000", "121026.838000", "121026.841000", "121026.843000", "121026.846000", "121026.848000", "121026.851000", "121026.853000", "121026.856000", "121026.858000", "121026.861000", "121026.863000", "121026.866000", "121026.868000", "121026.871000", "121026.873000", "121026.876000", "121026.878000", "121026.881000", "121106.841000", "121106.843000", "121106.846000", "121106.849000", "121106.851000", "121106.854000", "121106.856000", "121106.859000", "121106.862000", "121106.864000", "121106.867000", "121106.870000", "121106.873000", "121106.875000", "121106.878000", "121106.880000", "121106.883000", "121106.886000", "121106.888000", "121106.891000", "121106.893000", "121106.896000", "121106.933000", "121106.935000", "121106.938000", "121106.940000", "121106.951000", "121146.809000", "121146.811000", "121146.828000", "121146.830000", "121146.833000", "121146.835000", "121146.838000", "121146.840000", "121146.843000", "121146.845000", "121146.848000", "121146.850000", "121146.853000", "121146.855000", "121146.858000", "121146.860000", "121146.863000", "121146.873000", "121146.875000", "121146.878000", "121146.880000", "121146.883000", "121146.885000", "121146.888000", "121146.890000", "121146.893000", "121146.895000", "121226.850000", "121226.853000", "121226.856000", "121226.858000", "121226.861000", "121226.873000", "121226.876000", "121226.878000", "121226.881000", "121226.883000", "121226.886000", "121226.888000", "121226.891000", "121226.893000", "121226.896000", "121226.898000", "121226.901000", "121226.903000", "121226.906000", "121226.908000", "121226.911000", "121226.913000", "121226.916000", "121226.918000", "121226.921000", "121226.924000", "121226.926000", "121306.859000", "121306.862000", "121306.873000", "121306.876000", "121306.878000", "121306.881000", "121306.884000", "121306.886000", "121306.889000", "121306.891000", "121306.894000", "121306.896000", "121306.899000", "121306.901000", "121306.904000", "121306.906000", "121306.909000", "121306.911000", "121306.914000", "121306.916000", "121306.919000", "121306.922000", "121306.924000", "121306.927000", "121306.929000", "121306.943000", "121306.946000", "121346.850000", "121346.853000", "121346.855000", "121346.858000", "121346.860000", "121346.863000", "121346.866000", "121346.868000", "121346.871000", "121346.873000", "121346.876000", "121346.878000", "121346.881000", "121346.883000", "121346.886000", "121346.888000", "121346.891000", "121346.899000", "121346.902000", "121346.904000", "121346.907000", "121346.909000", "121346.912000", "121346.914000", "121346.917000", "121346.919000", "121426.802000", "121426.804000", "121426.807000", "121426.809000", "121426.812000", "121426.815000", "121426.817000", "121426.820000", "121426.822000", "121426.825000", "121426.827000", "121426.830000", "121426.833000", "121426.835000", "121426.837000", "121426.840000", "121426.843000", "121426.845000", "121426.848000", "121426.850000", "121426.853000", "121426.855000", "121426.858000", "121426.860000", "121426.863000", "121426.865000", "121426.868000", "121506.831000", "121506.834000", "121506.836000", "121506.839000", "121506.841000", "121506.844000", "121506.847000", "121506.849000", "121506.852000", "121506.854000", "121506.857000", "121506.859000", "121506.862000", "121506.868000", "121506.871000", "121506.874000", "121506.876000", "121506.878000", "121506.881000", "121506.884000", "121506.886000", "121506.889000", "121506.891000", "121506.894000", "121506.896000", "121506.899000", "121506.901000", "121546.817000", "121546.820000", "121546.822000", "121546.825000", "121546.828000", "121546.830000", "121546.832000", "121546.835000", "121546.842000", "121546.844000", "121546.847000", "121546.849000", "121546.852000", "121546.854000", "121546.857000", "121546.859000", "121546.862000", "121546.864000", "121546.867000", "121546.869000", "121546.872000", "121546.874000", "121546.877000", "121546.879000", "121546.882000", "121546.884000", "121546.887000", "121626.808000", "121626.811000", "121626.814000", "121626.816000", "121626.819000", "121626.821000", "121626.824000", "121626.826000", "121626.829000", "121626.831000", "121626.834000", "121626.836000", "121626.839000", "121626.841000", "121626.844000", "121626.846000", "121626.857000", "121626.860000", "121626.863000", "121626.865000", "121626.867000", "121626.870000", "121626.873000", "121626.875000", "121626.878000", "121626.880000", "121626.883000", "121648.147000", "121648.150000", "121648.154000", "121648.157000", "121648.159000", "121648.162000", "121648.164000", "121648.167000", "121648.169000", "121648.172000", "121648.175000", "121648.177000", "121648.180000", "121648.182000"],
