{
  "AcquisitionMatrixPE": 104,
  "AcquisitionNumber": 1,
  "AcquisitionTime": "11:39:15.870000",
  "BandwidthPerPixelPhaseEncode": 17.17,
  "BaseResolution": 104,
  "BodyPartExamined": "BRAIN",
  "CoilCombinationMethod": "Sum of Squares",
  "ConsistencyInfo": "N4_VE11C_LATEST_20160120",
  "ConversionSoftware": "dcm2niix",
  "ConversionSoftwareVersion": "v1.0.20220505",
  "DerivedVendorReportedEchoSpacing": 0.000560011,
  "DeviceSerialNumber": "167006",
  "DwellTime": 2.1e-06,
  "EchoTime": 0.037,
  "EchoTime1": 0.037,
  "EchoTime2": 0.001,
  "EchoTrainLength": 104,
  "EffectiveEchoSpacing": 0.000560011,
  "FlipAngle": 52,
  "HeudiconvVersion": "0.5.3.post811+g6206e14",
  "ImageComments": "Unaliased MB4/PE3/LB",
  "ImageOrientationPatientDICOM": [0.996363, 0.0719648, 0.0456198, -0.051171, 0.933482, -0.354954],
  "ImageOrientationText": "Tra>Cor(-20.6)>Sag(3.9)",
  "ImageType": [
    "ORIGINAL",
    "PRIMARY",
    "P",
    "MB",
    "ND",
    "MOSAIC",
    "PHASE"
],
  "ImagingFrequency": 123.259,
  "InPlanePhaseEncodingDirectionDICOM": "COL",
  "InstitutionAddress": "Chemin Queen-Mary 4565,Montreal,District,CA,H3W 1W5",
  "InstitutionName": "IUGM",
  "InstitutionalDepartmentName": "Department",
  "MRAcquisitionType": "2D",
  "MagneticFieldStrength": 3,
  "Manufacturer": "Siemens",
  "ManufacturersModelName": "Prisma_fit",
  "MatrixCoilMode": "SENSE",
  "Modality": "MR",
  "MultibandAccelerationFactor": 4,
  "PartialFourier": 1,
  "PatientPosition": "HFS",
  "PercentPhaseFOV": 100,
  "PercentSampling": 100,
  "PhaseEncodingDirection": "j",
  "PhaseEncodingSteps": 104,
  "PhaseResolution": 1,
  "PixelBandwidth": 2290,
  "ProcedureStepDescription": "games^mario3",
  "ProtocolName": "func_task-mario3_run-01",
  "PulseSequenceDetails": "%CustomerSeq%\\cmrr_mbep2d_bold",
  "ReceiveCoilActiveElements": "HC1-7;NC1,2",
  "ReceiveCoilName": "HeadNeck_64",
  "ReconMatrixPE": 104,
  "RepetitionTime": 1.49,
  "SAR": 0.0508668,
  "ScanOptions": "FS",
  "ScanningSequence": "EP",
  "SequenceName": "epfid2d1_104",
  "SequenceVariant": "SK\\SS",
  "SeriesDescription": "func_task-mario3_run-01",
  "SeriesNumber": 11,
  "ShimSetting": [610, -7247, -8814, 603, 116, -59, -54, 81],
  "SliceThickness": 2,
  "SliceTiming": [0, 0.7825, 0.0975, 0.88, 0.195, 0.9775, 0.2925, 1.0775, 0.39, 1.175, 0.4875, 1.2725, 0.5875, 1.37, 0.685, 0, 0.7825, 0.0975, 0.88, 0.195, 0.9775, 0.2925, 1.0775, 0.39, 1.175, 0.4875, 1.2725, 0.5875, 1.37, 0.685, 0, 0.7825, 0.0975, 0.88, 0.195, 0.9775, 0.2925, 1.0775, 0.39, 1.175, 0.4875, 1.2725, 0.5875, 1.37, 0.685, 0, 0.7825, 0.0975, 0.88, 0.195, 0.9775, 0.2925, 1.0775, 0.39, 1.175, 0.4875, 1.2725, 0.5875, 1.37, 0.685],
  "SoftwareVersions": "syngo MR E11",
  "SpacingBetweenSlices": 2,
  "StationName": "MRC35049",
  "TaskName": "mario3",
  "TotalReadoutTime": 0.0576811,
  "TxRefAmp": 252.112,
  "WipMemBlock": "3decb948-b170-4070-84dd-2bb3f3ebc67b||Sequence: R017 ve11c/master r/75a17815+; Jun 28 2022 16:32:11 by eja",
  "dcmmeta_affine": [
    [-1.9927266836166382, -0.10234203189611435, 0.13625892996788025, 109.39710235595703],
    [-0.14392957091331482, 1.8669646978378296, -0.7026572823524475, -52.502567291259766],
    [0.09123962372541428, 0.7099078297615051, 1.8675401210784912, -63.4535026550293],
    [0.0, 0.0, 0.0, 1.0]
],
  "dcmmeta_reorient_transform": [
    [0.0, -1.0, 0.0, 103.0],
    [1.0, 0.0, 0.0, 0.0],
    [0.0, 0.0, 1.0, 0.0],
    [0.0, 0.0, 0.0, 1.0]
],
  "dcmmeta_shape": [104, 104, 60, 304],
  "dcmmeta_slice_dim": 2,
  "dcmmeta_version": 0.6,
  "global": {
    "const": {
      "AcquisitionMatrix": [104, 0, 0, 104],
      "AngioFlag": "N",
      "BitsAllocated": 16,
      "BitsStored": 16,
      "BodyPartExamined": "BRAIN",
      "Columns": 832,
      "EchoNumbers": 1,
      "EchoTime": 37.0,
      "EchoTrainLength": 104,
      "FlipAngle": 52.0,
      "HighBit": 15,
      "ImageOrientationPatient": [0.9963633386832, 0.0719647835097, 0.04561981217057, -0.0511710144504, 0.93348232471718, -0.354953907882],
      "ImagePositionPatient": [-786.95588280455, -871.76028460263, 234.86222350658],
      "ImageType": [
        "ORIGINAL",
        "PRIMARY",
        "P",
        "MB",
        "ND",
        "MOSAIC"
],
      "ImagedNucleus": "1H",
      "ImagingFrequency": 123.259247,
      "InPlanePhaseEncodingDirection": "COL",
      "LargestImagePixelValue": 4095,
      "MRAcquisitionType": "2D",
      "MagneticFieldStrength": 3.0,
      "Manufacturer": "SIEMENS",
      "ManufacturerModelName": "Prisma_fit",
      "Modality": "MR",
      "NumberOfAverages": 1.0,
      "NumberOfPhaseEncodingSteps": 104,
      "PercentPhaseFieldOfView": 100.0,
      "PercentSampling": 100.0,
      "PerformedProcedureStepStartTime": "113336.628000",
      "PhotometricInterpretation": "MONOCHROME2",
      "PixelBandwidth": 2290.0,
      "PixelRepresentation": 0,
      "PixelSpacing": [2.0, 2.0],
      "ProtocolName": "func_task-mario3_run-01",
      "RepetitionTime": 1490.0,
      "RescaleIntercept": -4096.0,
      "RescaleSlope": 2.0,
      "RescaleType": "US",
      "Rows": 832,
      "SAR": 0.05086682170868,
      "SamplesPerPixel": 1,
      "ScanOptions": "FS",
      "ScanningSequence": "EP",
      "SequenceName": "epfid2d1_104",
      "SequenceVariant": [
        "SK",
        "SS"
],
      "SeriesDescription": "func_task-mario3_run-01",
      "SeriesNumber": 11,
      "SeriesTime": "114026.810000",
      "SliceLocation": -33.352159530098,
      "SliceThickness": 2.0,
      "SmallestImagePixelValue": 0,
      "SoftwareVersions": "syngo MR E11",
      "SpacingBetweenSlices": 1.9999999461855,
      "SpecificCharacterSet": "ISO_IR 100",
      "StudyID": "1",
      "StudyTime": "113336.548000",
      "TransmitCoilName": "Body",
      "VariableFlipAngleFlag": "N",
      "WindowCenterWidthExplanation": "Algo1",
      "dBdt": 0.0},
    "slices": {}
  },
  "time": {
    "samples": {
      "AcquisitionNumber": [1, 2, 3, 4, 5, 6, 7, 8, 9, 10, 11, 12, 13, 14, 15, 16, 17, 18, 19, 20, 21, 22, 23, 24, 25, 26, 27, 28, 29, 30, 31, 32, 33, 34, 35, 36, 37, 38, 39, 40, 41, 42, 43, 44, 45, 46, 47, 48, 49, 50, 51, 52, 53, 54, 55, 56, 57, 58, 59, 60, 61, 62, 63, 64, 65, 66, 67, 68, 69, 70, 71, 72, 73, 74, 75, 76, 77, 78, 79, 80, 81, 82, 83, 84, 85, 86, 87, 88, 89, 90, 91, 92, 93, 94, 95, 96, 97, 98, 99, 100, 101, 102, 103, 104, 105, 106, 107, 108, 109, 110, 111, 112, 113, 114, 115, 116, 117, 118, 119, 120, 121, 122, 123, 124, 125, 126, 127, 128, 129, 130, 131, 132, 133, 134, 135, 136, 137, 138, 139, 140, 141, 142, 143, 144, 145, 146, 147, 148, 149, 150, 151, 152, 153, 154, 155, 156, 157, 158, 159, 160, 161, 162, 163, 164, 165, 166, 167, 168, 169, 170, 171, 172, 173, 174, 175, 176, 177, 178, 179, 180, 181, 182, 183, 184, 185, 186, 187, 188, 189, 190, 191, 192, 193, 194, 195, 196, 197, 198, 199, 200, 201, 202, 203, 204, 205, 206, 207, 208, 209, 210, 211, 212, 213, 214, 215, 216, 217, 218, 219, 220, 221, 222, 223, 224, 225, 226, 227, 228, 229, 230, 231, 232, 233, 234, 235, 236, 237, 238, 239, 240, 241, 242, 243, 244, 245, 246, 247, 248, 249, 250, 251, 252, 253, 254, 255, 256, 257, 258, 259, 260, 261, 262, 263, 264, 265, 266, 267, 268, 269, 270, 271, 272, 273, 274, 275, 276, 277, 278, 279, 280, 281, 282, 283, 284, 285, 286, 287, 288, 289, 290, 291, 292, 293, 294, 295, 296, 297, 298, 299, 300, 301, 302, 303, 304],
      "AcquisitionTime": ["113915.870000", "113917.360000", "113918.850000", "113920.340000", "113921.830000", "113923.320000", "113924.810000", "113926.300000", "113927.790000", "113929.280000", "113930.770000", "113932.260000", "113933.750000", "113935.240000", "113936.730000", "113938.220000", "113939.710000", "113941.200000", "113942.690000", "113944.180000", "113945.670000", "113947.160000", "113948.650000", "113950.140000", "113951.630000", "113953.120000", "113954.610000", "113956.100000", "113957.590000", "113959.080000", "114000.570000", "114002.060000", "114003.550000", "114005.040000", "114006.530000", "114008.020000", "114009.510000", "114011.000000", "114012.490000", "114013.980000", "114015.470000", "114016.960000", "114018.450000", "114019.940000", "114021.430000", "114022.920000", "114024.410000", "114025.900000", "114027.390000", "114028.880000", "114030.370000", "114031.860000", "114033.350000", "114034.840000", "114036.330000", "114037.820000", "114039.310000", "114040.800000", "114042.290000", "114043.780000", "114045.270000", "114046.760000", "114048.250000", "114049.740000", "114051.230000", "114052.720000", "114054.210000", "114055.700000", "114057.190000", "114058.680000", "114100.170000", "114101.660000", "114103.150000", "114104.640000", "114106.130000", "114107.620000", "114109.110000", "114110.600000", "114112.090000", "114113.580000", "114115.070000", "114116.560000", "114118.050000", "114119.540000", "114121.030000", "114122.520000", "114124.010000", "114125.500000", "114126.990000", "114128.480000", "114129.970000", "114131.460000", "114132.950000", "114134.440000", "114135.930000", "114137.420000", "114138.910000", "114140.400000", "114141.890000", "114143.380000", "114144.870000", "114146.360000", "114147.850000", "114149.340000", "114150.830000", "114152.320000", "114153.810000", "114155.300000", "114156.790000", "114158.280000", "114159.770000", "114201.260000", "114202.750000", "114204.240000", "114205.730000", "114207.220000", "114208.710000", "114210.200000", "114211.690000", "114213.180000", "114214.670000", "114216.160000", "114217.650000", "114219.140000", "114220.630000", "114222.120000", "114223.610000", "114225.100000", "114226.590000", "114228.080000", "114229.570000", "114231.060000", "114232.550000", "114234.040000", "114235.530000", "114237.020000", "114238.510000", "114240.000000", "114241.490000", "114242.980000", "114244.470000", "114245.960000", "114247.450000", "114248.940000", "114250.430000", "114251.920000", "114253.410000", "114254.900000", "114256.390000", "114257.880000", "114259.370000", "114300.860000", "114302.350000", "114303.840000", "114305.330000", "114306.820000", "114308.310000", "114309.800000", "114311.290000", "114312.780000", "114314.270000", "114315.760000", "114317.250000", "114318.740000", "114320.230000", "114321.720000", "114323.210000", "114324.700000", "114326.190000", "114327.680000", "114329.170000", "114330.660000", "114332.150000", "114333.640000", "114335.130000", "114336.620000", "114338.110000", "114339.600000", "114341.090000", "114342.580000", "114344.070000", "114345.560000", "114347.050000", "114348.540000", "114350.030000", "114351.520000", "114353.010000", "114354.500000", "114355.990000", "114357.480000", "114358.970000", "114400.460000", "114401.950000", "114403.440000", "114404.930000", "114406.420000", "114407.910000", "114409.400000", "114410.890000", "114412.380000", "114413.870000", "114415.360000", "114416.850000", "114418.340000", "114419.830000", "114421.320000", "114422.810000", "114424.300000", "114425.790000", "114427.280000", "114428.770000", "114430.260000", "114431.750000", "114433.240000", "114434.730000", "114436.220000", "114437.710000", "114439.200000", "114440.690000", "114442.180000", "114443.670000", "114445.160000", "114446.650000", "114448.140000", "114449.630000", "114451.120000", "114452.610000", "114454.100000", "114455.590000", "114457.080000", "114458.570000", "114500.060000", "114501.550000", "114503.040000", "114504.530000", "114506.020000", "114507.510000", "114509.000000", "114510.490000", "114511.980000", "114513.470000", "114514.960000", "114516.450000", "114517.940000", "114519.430000", "114520.920000", "114522.410000", "114523.900000", "114525.390000", "114526.880000", "114528.370000", "114529.860000", "114531.350000", "114532.840000", "114534.330000", "114535.820000", "114537.310000", "114538.800000", "114540.290000", "114541.780000", "114543.270000", "114544.760000", "114546.250000", "114547.740000", "114549.230000", "114550.720000", "114552.210000", "114553.700000", "114555.190000", "114556.680000", "114558.170000", "114559.660000", "114601.150000", "114602.640000", "114604.130000", "114605.620000", "114607.110000", "114608.600000", "114610.090000", "114611.580000", "114613.070000", "114614.560000", "114616.050000", "114617.540000", "114619.030000", "114620.520000", "114622.010000", "114623.500000", "114624.990000", "114626.480000", "114627.970000", "114629.460000", "114630.950000", "114632.440000", "114633.930000", "114635.420000", "114636.910000", "114638.400000", "114639.890000", "114641.380000", "114642.870000", "114644.360000", "114645.850000", "114647.340000"],
      "ContentTime": ["114026.812000", "114026.815000", "114026.817000", "114026.820000", "114026.822000", "114026.825000", "114026.827000", "114026.830000", "114026.832000", "114026.835000", "114026.837000", "114026.840000", "114026.842000", "114026.844000", "114026.847000", "114026.851000", "114026.855000", "114026.858000", "114026.861000", "114026.864000", "114026.866000", "114046.793000", "114046.796000", "114046.799000", "114046.801000", "114046.803000", "114046.806000", "114046.808000", "114046.811000", "114046.813000", "114046.816000", "114046.818000", "114046.820000", "114046.823000", "114046.825000", "114046.828000", "114046.830000", "114046.833000", "114046.835000", "114046.838000", "114046.840000", "114046.850000", "114106.770000", "114106.772000", "114106.775000", "114106.777000", "114106.780000", "114106.782000", "114106.784000", "114106.787000", "114106.789000", "114106.792000", "114106.794000", "114106.796000", "114106.799000", "114106.801000", "114106.804000", "114106.806000", "114106.809000", "114106.811000", "114106.813000", "114106.816000", "114126.769000", "114126.771000", "114126.774000", "114126.776000", "114126.779000", "114126.781000", "114126.783000", "114126.786000", "114126.788000", "114126.791000", "114126.793000", "114126.796000", "114126.798000", "114126.801000", "114126.803000", "114126.806000", "114126.808000", "114126.811000", "114126.813000", "114126.815000", "114206.822000", "114206.825000", "114206.828000", "114206.830000", "114206.833000", "114206.836000", "114206.838000", "114206.841000", "114206.844000", "114206.847000", "114206.850000", "114206.853000", "114206.856000", "114206.859000", "114206.861000", "114206.863000", "114206.873000", "114206.876000", "114206.879000", "114206.881000", "114206.884000", "114206.886000", "114206.888000", "114206.891000", "114206.893000", "114206.896000", "114206.898000", "114206.901000", "114206.903000", "114206.906000", "114206.908000", "114246.795000", "114246.798000", "114246.800000", "114246.803000", "114246.805000", "114246.808000", "114246.810000", "114246.813000", "114246.815000", "114246.818000", "114246.820000", "114246.822000", "114246.825000", "114246.827000", "114246.830000", "114246.832000", "114246.835000", "114246.838000", "114246.840000", "114246.842000", "114246.845000", "114246.848000", "114246.850000", "114246.852000", "114246.855000", "114246.857000", "114246.860000", "114326.804000", "114326.814000", "114326.817000", "114326.819000", "114326.822000", "114326.824000", "114326.827000", "114326.829000", "114326.832000", "114326.834000", "114326.837000", "114326.839000", "114326.842000", "114326.844000", "114326.847000", "114326.849000", "114326.852000", "114326.854000", "114326.857000", "114326.859000", "114326.862000", "114326.864000", "114326.867000", "114326.869000", "114326.872000", "114326.874000", "114326.877000", "114406.800000", "114406.803000", "114406.805000", "114406.808000", "114406.810000", "114406.812000", "114406.815000", "114406.817000", "114406.820000", "114406.822000", "114406.825000", "114406.827000", "114406.830000", "114406.832000", "114406.841000", "114406.843000", "114406.846000", "114406.848000", "114406.851000", "114406.853000", "114406.856000", "114406.858000", "114406.860000", "114406.863000", "114406.865000", "114406.868000", "114406.870000", "114446.802000", "114446.804000", "114446.807000", "114446.809000", "114446.812000", "114446.814000", "114446.817000", "114446.819000", "114446.822000", "114446.824000", "114446.827000", "114446.829000", "114446.832000", "114446.834000", "114446.836000", "114446.839000", "114446.841000", "114446.844000", "114446.846000", "114446.849000", "114446.851000", "114446.854000", "114446.860000", "114446.863000", "114446.865000", "114446.868000", "114446.870000", "114527.375000", "114527.378000", "114527.380000", "114527.383000", "114527.385000", "114527.388000", "114527.390000", "114527.393000", "114527.395000", "114527.398000", "114527.400000", "114527.403000", "114527.406000", "114527.408000", "114527.411000", "114527.413000", "114527.416000", "114527.418000", "114527.421000", "114527.423000", "114527.426000", "114527.428000", "114527.430000", "114527.433000", "114527.435000", "114527.438000", "114527.440000", "114606.810000", "114606.813000", "114606.832000", "114606.834000", "114606.837000", "114606.839000", "114606.841000", "114606.844000", "114606.846000", "114606.849000", "114606.851000", "114606.854000", "114606.856000", "114606.859000", "114606.861000", "114606.864000", "114606.866000", "114606.869000", "114606.871000", "114606.874000", "114606.876000", "114606.879000", "114606.881000", "114606.883000", "114606.886000", "114606.888000", "114646.802000", "114646.804000", "114646.807000", "114646.810000", "114646.812000", "114646.815000", "114646.817000", "114646.820000", "114646.822000", "114646.825000", "114646.827000", "114646.830000", "114646.832000", "114646.835000", "114646.837000", "114646.840000", "114646.842000", "114646.845000", "114646.847000", "114646.850000", "114646.852000", "114646.855000", "114646.857000", "114646.860000", "114646.862000", "114646.865000", "114646.867000", "114650.693000", "114650.696000", "114650.698000"],
      "InstanceCreationTime": ["114026.812000", "114026.815000", "114026.817000", "114026.820000", "114026.822000", "114026.825000", "114026.827000", "114026.830000", "114026.832000", "114026.835000", "114026.837000", "114026.840000", "114026.842000", "114026.844000", "114026.847000", "114026.851000", "114026.855000", "114026.858000", "114026.861000", "114026.864000", "114026.866000", "114046.793000", "114046.796000", "114046.799000", "114046.801000", "114046.803000", "114046.806000", "114046.808000", "114046.811000", "114046.813000", "114046.816000", "114046.818000", "114046.820000", "114046.823000", "114046.825000", "114046.828000", "114046.830000", "114046.833000", "114046.835000", "114046.838000", "114046.840000", "114046.850000", "114106.770000", "114106.772000", "114106.775000", "114106.777000", "114106.780000", "114106.782000", "114106.784000", "114106.787000", "114106.789000", "114106.792000", "114106.794000", "114106.796000", "114106.799000", "114106.801000", "114106.804000", "114106.806000", "114106.809000", "114106.811000", "114106.813000", "114106.816000", "114126.769000", "114126.771000", "114126.774000", "114126.776000", "114126.779000", "114126.781000", "114126.783000", "114126.786000", "114126.788000", "114126.791000", "114126.793000", "114126.796000", "114126.798000", "114126.801000", "114126.803000", "114126.806000", "114126.808000", "114126.811000", "114126.813000", "114126.815000", "114206.822000", "114206.825000", "114206.828000", "114206.830000", "114206.833000", "114206.836000", "114206.838000", "114206.841000", "114206.844000", "114206.847000", "114206.850000", "114206.853000", "114206.856000", "114206.859000", "114206.861000", "114206.863000", "114206.873000", "114206.876000", "114206.879000", "114206.881000", "114206.884000", "114206.886000", "114206.888000", "114206.891000", "114206.893000", "114206.896000", "114206.898000", "114206.901000", "114206.903000", "114206.906000", "114206.908000", "114246.795000", "114246.798000", "114246.800000", "114246.803000", "114246.805000", "114246.808000", "114246.810000", "114246.813000", "114246.815000", "114246.818000", "114246.820000", "114246.822000", "114246.825000", "114246.827000", "114246.830000", "114246.832000", "114246.835000", "114246.838000", "114246.840000", "114246.842000", "114246.845000", "114246.848000", "114246.850000", "114246.852000", "114246.855000", "114246.857000", "114246.860000", "114326.804000", "114326.814000", "114326.817000", "114326.819000", "114326.822000", "114326.824000", "114326.827000", "114326.829000", "114326.832000", "114326.834000", "114326.837000", "114326.839000", "114326.842000", "114326.844000", "114326.847000", "114326.849000", "114326.852000", "114326.854000", "114326.857000", "114326.859000", "114326.862000", "114326.864000", "114326.867000", "114326.869000", "114326.872000", "114326.874000", "114326.877000", "114406.800000", "114406.803000", "114406.805000", "114406.808000", "114406.810000", "114406.812000", "114406.815000", "114406.817000", "114406.820000", "114406.822000", "114406.825000", "114406.827000", "114406.830000", "114406.832000", "114406.841000", "114406.843000", "114406.846000", "114406.848000", "114406.851000", "114406.853000", "114406.856000", "114406.858000", "114406.860000", "114406.863000", "114406.865000", "114406.868000", "114406.870000", "114446.802000", "114446.804000", "114446.807000", "114446.809000", "114446.812000", "114446.814000", "114446.817000", "114446.819000", "114446.822000", "114446.824000", "114446.827000", "114446.829000", "114446.832000", "114446.834000", "114446.836000", "114446.839000", "114446.841000", "114446.844000", "114446.846000", "114446.849000", "114446.851000", "114446.854000", "114446.860000", "114446.863000", "114446.865000", "114446.868000", "114446.870000", "114527.375000", "114527.378000", "114527.380000", "114527.383000", "114527.385000", "114527.388000", "114527.390000", "114527.393000", "114527.395000", "114527.398000", "114527.400000", "114527.403000", "114527.406000", "114527.408000", "114527.411000", "114527.413000", "114527.416000", "114527.418000", "114527.421000", "114527.423000", "114527.426000", "114527.428000", "114527.430000", "114527.433000", "114527.435000", "114527.438000", "114527.440000", "114606.810000", "114606.813000", "114606.832000", "114606.834000", "114606.837000", "114606.839000", "114606.841000", "114606.844000", "114606.846000", "114606.849000", "114606.851000", "114606.854000", "114606.856000", "114606.859000", "114606.861000", "114606.864000", "114606.866000", "114606.869000", "114606.871000", "114606.874000", "114606.876000", "114606.879000", "114606.881000", "114606.883000", "114606.886000", "114606.888000", "114646.802000", "114646.804000", "114646.807000", "114646.810000", "114646.812000", "114646.815000", "114646.817000", "114646.820000", "114646.822000", "114646.825000", "114646.827000", "114646.830000", "114646.832000", "114646.835000", "114646.837000", "114646.840000", "114646.842000", "114646.845000", "114646.847000", "114646.850000", "114646.852000", "114646.855000", "114646.857000", "114646.860000", "114646.862000", "114646.865000", "114646.867000", "114650.693000", "114650.696000", "114650.698000"],
      "InstanceNumber": [1, 2, 3, 4, 5, 6, 7, 8, 9, 10, 11, 12, 13, 14, 15, 16, 17, 18, 19, 20, 21, 22, 23, 24, 25, 26, 27, 28, 29, 30, 31, 32, 33, 34, 35, 36, 37, 38, 39, 40, 41, 42, 43, 44, 45, 46, 47, 48, 49, 50, 51, 52, 53, 54, 55, 56, 57, 58, 59, 60, 61, 62, 63, 64, 65, 66, 67, 68, 69, 70, 71, 72, 73, 74, 75, 76, 77, 78, 79, 80, 81, 82, 83, 84, 85, 86, 87, 88, 89, 90, 91, 92, 93, 94, 95, 96, 97, 98, 99, 100, 101, 102, 103, 104, 105, 106, 107, 108, 109, 110, 111, 112, 113, 114, 115, 116, 117, 118, 119, 120, 121, 122, 123, 124, 125, 126, 127, 128, 129, 130, 131, 132, 133, 134, 135, 136, 137, 138, 139, 140, 141, 142, 143, 144, 145, 146, 147, 148, 149, 150, 151, 152, 153, 154, 155, 156, 157, 158, 159, 160, 161, 162, 163, 164, 165, 166, 167, 168, 169, 170, 171, 172, 173, 174, 175, 176, 177, 178, 179, 180, 181, 182, 183, 184, 185, 186, 187, 188, 189, 190, 191, 192, 193, 194, 195, 196, 197, 198, 199, 200, 201, 202, 203, 204, 205, 206, 207, 208, 209, 210, 211, 212, 213, 214, 215, 216, 217, 218, 219, 220, 221, 222, 223, 224, 225, 226, 227, 228, 229, 230, 231, 232, 233, 234, 235, 236, 237, 238, 239, 240, 241, 242, 243, 244, 245, 246, 247, 248, 249, 250, 251, 252, 253, 254, 255, 256, 257, 258, 259, 260, 261, 262, 263, 264, 265, 266, 267, 268, 269, 270, 271, 272, 273, 274, 275, 276, 277, 278, 279, 280, 281, 282, 283, 284, 285, 286, 287, 288, 289, 290, 291, 292, 293, 294, 295, 296, 297, 298, 299, 300, 301, 302, 303, 304],
      "WindowCenter": [4848.0, 4850.0, 4878.0, 4878.0, 4872.0, 4850.0, 4846.0, 4842.0, 4848.0, 4852.0, 4848.0, 4874.0, 4848.0, 4850.0, 4850.0, 4874.0, 4846.0, 4846.0, 4842.0, 4846.0, 4842.0, 4846.0, 4846.0, 4848.0, 4844.0, 4848.0, 4846.0, 4836.0, 4846.0, 4848.0, 4848.0, 4842.0, 4844.0, 4848.0, 4844.0, 4844.0, 4846.0, 4844.0, 4846.0, 4842.0, 4846.0, 4846.0, 4842.0, 4848.0, 4844.0, 4844.0, 4846.0, 4844.0, 4846.0, 4840.0, 4846.0, 4846.0, 4846.0, 4846.0, 4844.0, 4844.0, 4846.0, 4844.0, 4842.0, 4842.0, 4844.0, 4844.0, 4848.0, 4842.0, 4846.0, 4844.0, 4844.0, 4846.0, 4844.0, 4848.0, 4838.0, 4844.0, 4840.0, 4844.0, 4842.0, 4840.0, 4850.0, 4850.0, 4848.0, 4850.0, 4840.0, 4842.0, 4842.0, 4842.0, 4842.0, 4840.0, 4844.0, 4844.0, 4840.0, 4846.0, 4842.0, 4844.0, 4844.0, 4842.0, 4842.0, 4840.0, 4844.0, 4846.0, 4846.0, 4846.0, 4848.0, 4846.0, 4842.0, 4842.0, 4840.0, 4834.0, 4846.0, 4844.0, 4842.0, 4850.0, 4846.0, 4844.0, 4842.0, 4842.0, 4844.0, 4844.0, 4846.0, 4844.0, 4840.0, 4846.0, 4846.0, 4846.0, 4846.0, 4844.0, 4844.0, 4842.0, 4842.0, 4842.0, 4846.0, 4846.0, 4848.0, 4836.0, 4840.0, 4846.0, 4842.0, 4846.0, 4848.0, 4842.0, 4844.0, 4840.0, 4840.0, 4842.0, 4840.0, 4846.0, 4842.0, 4846.0, 4844.0, 4844.0, 4842.0, 4846.0, 4844.0, 4840.0, 4838.0, 4846.0, 4844.0, 4840.0, 4844.0, 4840.0, 4842.0, 4838.0, 4844.0, 4842.0, 4838.0, 4844.0, 4848.0, 4846.0, 4846.0, 4840.0, 4848.0, 4846.0, 4842.0, 4844.0, 4840.0, 4840.0, 4846.0, 4842.0, 4848.0, 4840.0, 4842.0, 4846.0, 4844.0, 4844.0, 4840.0, 4844.0, 4842.0, 4840.0, 4846.0, 4844.0, 4842.0, 4842.0, 4844.0, 4846.0, 4838.0, 4842.0, 4842.0, 4842.0, 4846.0, 4842.0, 4844.0, 4842.0, 4842.0, 4848.0, 4842.0, 4846.0, 4844.0, 4844.0, 4844.0, 4840.0, 4844.0, 4840.0, 4842.0, 4846.0, 4842.0, 4842.0, 4838.0, 4840.0, 4844.0, 4842.0, 4844.0, 4852.0, 4846.0, 4816.0, 4816.0, 4842.0, 4838.0, 4848.0, 4850.0, 4850.0, 4848.0, 4848.0, 4846.0, 4846.0, 4844.0, 4846.0, 4842.0, 4844.0, 4844.0, 4850.0, 4846.0, 4852.0, 4846.0, 4850.0, 4846.0, 4842.0, 4844.0, 4848.0, 4846.0, 4848.0, 4854.0, 4846.0, 4840.0, 4844.0, 4808.0, 4812.0, 4808.0, 4842.0, 4854.0, 4854.0, 4854.0, 4854.0, 4848.0, 4814.0, 4838.0, 4840.0, 4842.0, 4842.0, 4848.0, 4848.0, 4852.0, 4850.0, 4848.0, 4846.0, 4846.0, 4842.0, 4840.0, 4842.0, 4846.0, 4844.0, 4844.0, 4846.0, 4846.0, 4844.0, 4842.0, 4808.0, 4834.0, 4872.0, 4854.0, 4852.0, 4878.0, 4850.0, 4844.0, 4840.0, 4842.0, 4838.0, 4814.0, 4846.0, 4872.0, 4852.0, 4848.0, 4850.0, 4852.0, 4850.0, 4844.0, 4840.0],
      "WindowWidth": [18640.0, 18636.0, 18672.0, 18668.0, 18672.0, 18640.0, 18636.0, 18636.0, 18644.0, 18642.0, 18640.0, 18672.0, 18640.0, 18644.0, 18642.0, 18674.0, 18642.0, 18642.0, 18640.0, 18640.0, 18636.0, 18640.0, 18642.0, 18648.0, 18644.0, 18644.0, 18642.0, 18634.0, 18642.0, 18644.0, 18640.0, 18638.0, 18638.0, 18638.0, 18636.0, 18634.0, 18638.0, 18642.0, 18640.0, 18638.0, 18642.0, 18644.0, 18638.0, 18642.0, 18638.0, 18638.0, 18640.0, 18642.0, 18638.0, 18636.0, 18644.0, 18640.0, 18642.0, 18640.0, 18636.0, 18642.0, 18642.0, 18636.0, 18632.0, 18638.0, 18642.0, 18640.0, 18638.0, 18632.0, 18642.0, 18638.0, 18644.0, 18640.0, 18636.0, 18642.0, 18636.0, 18638.0, 18638.0, 18642.0, 18640.0, 18636.0, 18646.0, 18644.0, 18642.0, 18646.0, 18636.0, 18634.0, 18636.0, 18638.0, 18638.0, 18632.0, 18642.0, 18638.0, 18634.0, 18640.0, 18638.0, 18640.0, 18638.0, 18636.0, 18634.0, 18632.0, 18640.0, 18644.0, 18638.0, 18640.0, 18640.0, 18638.0, 18638.0, 18640.0, 18630.0, 18632.0, 18638.0, 18636.0, 18636.0, 18646.0, 18638.0, 18638.0, 18638.0, 18638.0, 18642.0, 18636.0, 18646.0, 18636.0, 18634.0, 18644.0, 18640.0, 18644.0, 18640.0, 18636.0, 18642.0, 18634.0, 18638.0, 18636.0, 18640.0, 18640.0, 18638.0, 18634.0, 18636.0, 18638.0, 18636.0, 18642.0, 18640.0, 18636.0, 18638.0, 18636.0, 18636.0, 18636.0, 18630.0, 18642.0, 18634.0, 18638.0, 18636.0, 18642.0, 18638.0, 18642.0, 18634.0, 18634.0, 18632.0, 18642.0, 18642.0, 18640.0, 18638.0, 18636.0, 18634.0, 18634.0, 18644.0, 18636.0, 18630.0, 18638.0, 18640.0, 18638.0, 18642.0, 18638.0, 18642.0, 18638.0, 18632.0, 18638.0, 18632.0, 18636.0, 18642.0, 18640.0, 18638.0, 18636.0, 18634.0, 18640.0, 18636.0, 18638.0, 18636.0, 18636.0, 18636.0, 18638.0, 18642.0, 18640.0, 18638.0, 18630.0, 18640.0, 18642.0, 18634.0, 18640.0, 18636.0, 18638.0, 18636.0, 18638.0, 18640.0, 18638.0, 18634.0, 18644.0, 18640.0, 18640.0, 18634.0, 18636.0, 18640.0, 18640.0, 18642.0, 18634.0, 18636.0, 18638.0, 18638.0, 18642.0, 18632.0, 18632.0, 18642.0, 18634.0, 18642.0, 18644.0, 18634.0, 18602.0, 18600.0, 18630.0, 18630.0, 18638.0, 18640.0, 18640.0, 18640.0, 18634.0, 18634.0, 18634.0, 18634.0, 18630.0, 18630.0, 18630.0, 18632.0, 18632.0, 18634.0, 18636.0, 18634.0, 18634.0, 18632.0, 18630.0, 18634.0, 18638.0, 18634.0, 18634.0, 18626.0, 18628.0, 18626.0, 18632.0, 18602.0, 18594.0, 18596.0, 18626.0, 18638.0, 18646.0, 18638.0, 18642.0, 18640.0, 18600.0, 18628.0, 18628.0, 18634.0, 18638.0, 18640.0, 18636.0, 18646.0, 18644.0, 18644.0, 18638.0, 18638.0, 18634.0, 18632.0, 18632.0, 18642.0, 18640.0, 18642.0, 18644.0, 18640.0, 18640.0, 18626.0, 18598.0, 18624.0, 18670.0, 18644.0, 18644.0, 18674.0, 18640.0, 18640.0, 18628.0, 18628.0, 18624.0, 18590.0, 18640.0, 18674.0, 18642.0, 18642.0, 18640.0, 18646.0, 18642.0, 18636.0, 18634.0]
    },
    "slices": {}
  }
}