{
  "AcquisitionMatrixPE": 104,
  "AcquisitionNumber": 1,
  "AcquisitionTime": "19:18:11.717500",
  "BandwidthPerPixelPhaseEncode": 17.17,
  "BaseResolution": 104,
  "BodyPartExamined": "BRAIN",
  "CoilCombinationMethod": "Sum of Squares",
  "ConsistencyInfo": "N4_VE11C_LATEST_20160120",
  "ConversionSoftware": "dcm2niix",
  "ConversionSoftwareVersion": "v1.0.20220505",
  "DerivedVendorReportedEchoSpacing": 0.000560011,
  "DeviceSerialNumber": "167006",
  "DwellTime": 2.1e-06,
  "EchoTime": 0.037,
  "EchoTrainLength": 104,
  "EffectiveEchoSpacing": 0.000560011,
  "FlipAngle": 52,
  "HeudiconvVersion": "0.5.3.post811+g6206e14",
  "ImageComments": "Unaliased MB4/PE3/LB",
  "ImageOrientationPatientDICOM": [0.999316, -0.0313383, 0.0196295, 0.036294, 0.932881, -0.358352],
  "ImageOrientationText": "Tra>Cor(-21.0)>Sag(0.4)",
  "ImageType": [
    "ORIGINAL",
    "PRIMARY",
    "M",
    "MB",
    "ND",
    "MOSAIC"
],
  "ImagingFrequency": 123.26,
  "InPlanePhaseEncodingDirectionDICOM": "COL",
  "InstitutionAddress": "Chemin Queen-Mary 4565,Montreal,District,CA,H3W 1W5",
  "InstitutionName": "IUGM",
  "InstitutionalDepartmentName": "Department",
  "MRAcquisitionType": "2D",
  "MagneticFieldStrength": 3,
  "Manufacturer": "Siemens",
  "ManufacturersModelName": "Prisma_fit",
  "MatrixCoilMode": "SENSE",
  "Modality": "MR",
  "MultibandAccelerationFactor": 4,
  "PartialFourier": 1,
  "PatientPosition": "HFS",
  "PercentPhaseFOV": 100,
  "PercentSampling": 100,
  "PhaseEncodingDirection": "j",
  "PhaseEncodingSteps": 104,
  "PhaseResolution": 1,
  "PixelBandwidth": 2290,
  "ProcedureStepDescription": "games^mario3",
  "ProtocolName": "func_task-mario3_run-02",
  "PulseSequenceDetails": "%CustomerSeq%\\cmrr_mbep2d_bold",
  "ReceiveCoilActiveElements": "HC1-7;NC1,2",
  "ReceiveCoilName": "HeadNeck_64",
  "ReconMatrixPE": 104,
  "RepetitionTime": 1.49,
  "SAR": 0.0830488,
  "ScanOptions": "FS",
  "ScanningSequence": "EP",
  "SequenceName": "epfid2d1_104",
  "SequenceVariant": "SK\\SS",
  "SeriesDescription": "func_task-mario3_run-02",
  "SeriesNumber": 13,
  "ShimSetting": [605, -7271, -8809, 436, 29, -353, -24, 33],
  "SliceThickness": 2,
  "SliceTiming": [0, 0.7825, 0.0975, 0.88, 0.195, 0.98, 0.2925, 1.0775, 0.39, 1.175, 0.49, 1.2725, 0.5875, 1.37, 0.685, 0, 0.7825, 0.0975, 0.88, 0.195, 0.98, 0.2925, 1.0775, 0.39, 1.175, 0.49, 1.2725, 0.5875, 1.37, 0.685, 0, 0.7825, 0.0975, 0.88, 0.195, 0.98, 0.2925, 1.0775, 0.39, 1.175, 0.49, 1.2725, 0.5875, 1.37, 0.685, 0, 0.7825, 0.0975, 0.88, 0.195, 0.98, 0.2925, 1.0775, 0.39, 1.175, 0.49, 1.2725, 0.5875, 1.37, 0.685],
  "SoftwareVersions": "syngo MR E11",
  "SpacingBetweenSlices": 2,
  "StationName": "MRC35049",
  "TaskName": "mario3",
  "TotalReadoutTime": 0.0576811,
  "TxRefAmp": 321.111,
  "WipMemBlock": "afcf6a99-1883-4fbc-90fb-687ed12b0498||Sequence: R017 ve11c/master r/75a17815+; Jun 28 2022 16:32:11 by eja",
  "dcmmeta_affine": [
    [-1.9986320734024048, 0.07258794456720352, 0.014163627289235592, 100.1351547241211],
    [0.06267659366130829, 1.8657618761062622, -0.7176381349563599, -72.24271392822266],
    [0.039258915930986404, 0.716703474521637, 1.866760492324829, -58.66277313232422],
    [0.0, 0.0, 0.0, 1.0]
],
  "dcmmeta_reorient_transform": [
    [0.0, -1.0, 0.0, 103.0],
    [1.0, 0.0, 0.0, 0.0],
    [0.0, 0.0, 1.0, 0.0],
    [0.0, 0.0, 0.0, 1.0]
],
  "dcmmeta_shape": [104, 104, 60, 320],
  "dcmmeta_slice_dim": 2,
  "dcmmeta_version": 0.6,
  "global": {
    "const": {
      "AcquisitionMatrix": [104, 0, 0, 104],
      "AngioFlag": "N",
      "BitsAllocated": 16,
      "BitsStored": 16,
      "BodyPartExamined": "BRAIN",
      "Columns": 832,
      "EchoNumbers": 1,
      "EchoTime": 37.0,
      "EchoTrainLength": 104,
      "FlipAngle": 52.0,
      "HighBit": 15,
      "ImageOrientationPatient": [0.99931606384249, -0.0313382980311, 0.01962945803785, 0.03629397281602, 0.93288090907746, -0.3583517224963],
      "ImagePositionPatient": [-861.53581898137, -776.25377671614, 261.74748890978],
      "ImageType": [
        "ORIGINAL",
        "PRIMARY",
        "M",
        "MB",
        "ND",
        "MOSAIC"
],
      "ImagedNucleus": "1H",
      "ImagingFrequency": 123.26018,
      "InPlanePhaseEncodingDirection": "COL",
      "MRAcquisitionType": "2D",
      "MagneticFieldStrength": 3.0,
      "Manufacturer": "SIEMENS",
      "ManufacturerModelName": "Prisma_fit",
      "Modality": "MR",
      "NumberOfAverages": 1.0,
      "NumberOfPhaseEncodingSteps": 104,
      "PercentPhaseFieldOfView": 100.0,
      "PercentSampling": 100.0,
      "PerformedProcedureStepStartTime": "190617.761000",
      "PhotometricInterpretation": "MONOCHROME2",
      "PixelBandwidth": 2290.0,
      "PixelRepresentation": 0,
      "PixelSpacing": [2.0, 2.0],
      "ProtocolName": "func_task-mario3_run-02",
      "RepetitionTime": 1490.0,
      "Rows": 832,
      "SAR": 0.08304876729367,
      "SamplesPerPixel": 1,
      "ScanOptions": "FS",
      "ScanningSequence": "EP",
      "SequenceName": "epfid2d1_104",
      "SequenceVariant": [
        "SK",
        "SS"
],
      "SeriesDescription": "func_task-mario3_run-02",
      "SeriesNumber": 13,
      "SeriesTime": "191925.817000",
      "SliceLocation": -28.123475658949,
      "SliceThickness": 2.0,
      "SmallestImagePixelValue": 0,
      "SoftwareVersions": "syngo MR E11",
      "SpacingBetweenSlices": 1.9999999702571,
      "SpecificCharacterSet": "ISO_IR 100",
      "StudyID": "1",
      "StudyTime": "190617.684000",
      "TransmitCoilName": "Body",
      "VariableFlipAngleFlag": "N",
      "WindowCenterWidthExplanation": "Algo1",
      "dBdt": 0.0},
    "slices": {}
  },
  "time": {
    "samples": {
      "AcquisitionNumber": [1, 2, 3, 4, 5, 6, 7, 8, 9, 10, 11, 12, 13, 14, 15, 16, 17, 18, 19, 20, 21, 22, 23, 24, 25, 26, 27, 28, 29, 30, 31, 32, 33, 34, 35, 36, 37, 38, 39, 40, 41, 42, 43, 44, 45, 46, 47, 48, 49, 50, 51, 52, 53, 54, 55, 56, 57, 58, 59, 60, 61, 62, 63, 64, 65, 66, 67, 68, 69, 70, 71, 72, 73, 74, 75, 76, 77, 78, 79, 80, 81, 82, 83, 84, 85, 86, 87, 88, 89, 90, 91, 92, 93, 94, 95, 96, 97, 98, 99, 100, 101, 102, 103, 104, 105, 106, 107, 108, 109, 110, 111, 112, 113, 114, 115, 116, 117, 118, 119, 120, 121, 122, 123, 124, 125, 126, 127, 128, 129, 130, 131, 132, 133, 134, 135, 136, 137, 138, 139, 140, 141, 142, 143, 144, 145, 146, 147, 148, 149, 150, 151, 152, 153, 154, 155, 156, 157, 158, 159, 160, 161, 162, 163, 164, 165, 166, 167, 168, 169, 170, 171, 172, 173, 174, 175, 176, 177, 178, 179, 180, 181, 182, 183, 184, 185, 186, 187, 188, 189, 190, 191, 192, 193, 194, 195, 196, 197, 198, 199, 200, 201, 202, 203, 204, 205, 206, 207, 208, 209, 210, 211, 212, 213, 214, 215, 216, 217, 218, 219, 220, 221, 222, 223, 224, 225, 226, 227, 228, 229, 230, 231, 232, 233, 234, 235, 236, 237, 238, 239, 240, 241, 242, 243, 244, 245, 246, 247, 248, 249, 250, 251, 252, 253, 254, 255, 256, 257, 258, 259, 260, 261, 262, 263, 264, 265, 266, 267, 268, 269, 270, 271, 272, 273, 274, 275, 276, 277, 278, 279, 280, 281, 282, 283, 284, 285, 286, 287, 288, 289, 290, 291, 292, 293, 294, 295, 296, 297, 298, 299, 300, 301, 302, 303, 304, 305, 306, 307, 308, 309, 310, 311, 312, 313, 314, 315, 316, 317, 318, 319, 320],
      "AcquisitionTime": ["191811.717500", "191813.207500", "191814.697500", "191816.187500", "191817.677500", "191819.167500", "191820.657500", "191822.147500", "191823.637500", "191825.127500", "191826.617500", "191828.107500", "191829.597500", "191831.087500", "191832.577500", "191834.067500", "191835.557500", "191837.047500", "191838.537500", "191840.027500", "191841.517500", "191843.007500", "191844.497500", "191845.987500", "191847.477500", "191848.967500", "191850.457500", "191851.947500", "191853.437500", "191854.927500", "191856.417500", "191857.907500", "191859.397500", "191900.887500", "191902.377500", "191903.867500", "191905.357500", "191906.847500", "191908.337500", "191909.827500", "191911.317500", "191912.807500", "191914.297500", "191915.787500", "191917.277500", "191918.767500", "191920.257500", "191921.747500", "191923.237500", "191924.727500", "191926.217500", "191927.707500", "191929.197500", "191930.687500", "191932.177500", "191933.667500", "191935.157500", "191936.647500", "191938.137500", "191939.627500", "191941.117500", "191942.607500", "191944.097500", "191945.587500", "191947.077500", "191948.567500", "191950.057500", "191951.547500", "191953.037500", "191954.527500", "191956.017500", "191957.507500", "191958.997500", "192000.487500", "192001.977500", "192003.467500", "192004.957500", "192006.447500", "192007.937500", "192009.427500", "192010.917500", "192012.407500", "192013.897500", "192015.387500", "192016.877500", "192018.367500", "192019.857500", "192021.347500", "192022.837500", "192024.327500", "192025.817500", "192027.307500", "192028.797500", "192030.287500", "192031.777500", "192033.267500", "192034.757500", "192036.247500", "192037.737500", "192039.227500", "192040.717500", "192042.207500", "192043.697500", "192045.187500", "192046.677500", "192048.167500", "192049.657500", "192051.147500", "192052.637500", "192054.127500", "192055.617500", "192057.107500", "192058.597500", "192100.087500", "192101.577500", "192103.067500", "192104.557500", "192106.047500", "192107.537500", "192109.027500", "192110.517500", "192112.007500", "192113.497500", "192114.987500", "192116.477500", "192117.967500", "192119.457500", "192120.947500", "192122.437500", "192123.927500", "192125.417500", "192126.907500", "192128.397500", "192129.887500", "192131.377500", "192132.867500", "192134.357500", "192135.847500", "192137.337500", "192138.827500", "192140.317500", "192141.807500", "192143.297500", "192144.787500", "192146.277500", "192147.767500", "192149.257500", "192150.747500", "192152.237500", "192153.727500", "192155.217500", "192156.707500", "192158.197500", "192159.687500", "192201.177500", "192202.667500", "192204.157500", "192205.647500", "192207.137500", "192208.627500", "192210.117500", "192211.607500", "192213.097500", "192214.587500", "192216.077500", "192217.567500", "192219.057500", "192220.547500", "192222.037500", "192223.527500", "192225.017500", "192226.507500", "192227.997500", "192229.487500", "192230.977500", "192232.467500", "192233.957500", "192235.447500", "192236.937500", "192238.427500", "192239.917500", "192241.407500", "192242.897500", "192244.387500", "192245.877500", "192247.367500", "192248.857500", "192250.347500", "192251.837500", "192253.327500", "192254.817500", "192256.307500", "192257.797500", "192259.287500", "192300.777500", "192302.267500", "192303.757500", "192305.247500", "192306.737500", "192308.227500", "192309.717500", "192311.207500", "192312.697500", "192314.187500", "192315.677500", "192317.167500", "192318.657500", "192320.147500", "192321.637500", "192323.127500", "192324.617500", "192326.107500", "192327.597500", "192329.087500", "192330.577500", "192332.067500", "192333.557500", "192335.047500", "192336.537500", "192338.027500", "192339.517500", "192341.007500", "192342.497500", "192343.987500", "192345.477500", "192346.967500", "192348.457500", "192349.947500", "192351.437500", "192352.927500", "192354.417500", "192355.907500", "192357.397500", "192358.887500", "192400.377500", "192401.867500", "192403.357500", "192404.847500", "192406.337500", "192407.827500", "192409.317500", "192410.807500", "192412.297500", "192413.787500", "192415.277500", "192416.767500", "192418.257500", "192419.747500", "192421.237500", "192422.727500", "192424.217500", "192425.707500", "192427.197500", "192428.687500", "192430.177500", "192431.667500", "192433.157500", "192434.647500", "192436.137500", "192437.627500", "192439.117500", "192440.607500", "192442.097500", "192443.587500", "192445.077500", "192446.567500", "192448.057500", "192449.547500", "192451.037500", "192452.527500", "192454.017500", "192455.507500", "192456.997500", "192458.487500", "192459.977500", "192501.467500", "192502.957500", "192504.447500", "192505.937500", "192507.427500", "192508.917500", "192510.407500", "192511.897500", "192513.387500", "192514.877500", "192516.367500", "192517.857500", "192519.347500", "192520.837500", "192522.327500", "192523.817500", "192525.307500", "192526.797500", "192528.287500", "192529.777500", "192531.267500", "192532.757500", "192534.247500", "192535.737500", "192537.227500", "192538.717500", "192540.207500", "192541.697500", "192543.187500", "192544.677500", "192546.167500", "192547.657500", "192549.147500", "192550.637500", "192552.127500", "192553.617500", "192555.107500", "192556.597500", "192558.087500", "192559.577500", "192601.067500", "192602.557500", "192604.047500", "192605.537500", "192607.027500"],
      "ContentTime": ["191925.821000", "191925.825000", "191925.828000", "191925.832000", "191925.835000", "191925.839000", "191925.842000", "191925.845000", "191925.849000", "191925.852000", "191925.855000", "191925.859000", "191925.862000", "191925.866000", "191925.870000", "191925.873000", "191925.876000", "191925.880000", "191925.884000", "191925.887000", "191925.890000", "191925.894000", "191925.897000", "191945.789000", "191945.793000", "191945.796000", "191945.800000", "191945.803000", "191945.807000", "191945.810000", "191945.814000", "191945.817000", "191945.821000", "191945.824000", "191945.828000", "191945.831000", "191945.834000", "191945.837000", "191945.841000", "191945.844000", "191945.848000", "191945.852000", "191945.855000", "192005.789000", "192005.793000", "192005.796000", "192005.800000", "192005.803000", "192005.806000", "192005.810000", "192005.813000", "192005.816000", "192005.820000", "192005.823000", "192005.826000", "192005.830000", "192005.833000", "192005.836000", "192005.840000", "192005.843000", "192005.846000", "192005.850000", "192005.853000", "192025.788000", "192025.792000", "192025.795000", "192025.799000", "192025.802000", "192025.805000", "192025.809000", "192025.812000", "192025.823000", "192025.826000", "192025.830000", "192025.842000", "192025.845000", "192025.849000", "192025.852000", "192025.856000", "192025.859000", "192025.862000", "192025.866000", "192025.869000", "192045.788000", "192045.792000", "192045.795000", "192045.799000", "192045.802000", "192045.805000", "192045.809000", "192045.812000", "192045.815000", "192045.819000", "192045.822000", "192045.826000", "192045.829000", "192045.832000", "192045.836000", "192045.839000", "192045.843000", "192045.846000", "192045.849000", "192045.853000", "192125.788000", "192125.792000", "192125.795000", "192125.799000", "192125.802000", "192125.806000", "192125.809000", "192125.818000", "192125.821000", "192125.824000", "192125.828000", "192125.831000", "192125.835000", "192125.838000", "192125.841000", "192125.845000", "192125.848000", "192125.851000", "192125.855000", "192125.858000", "192125.861000", "192125.864000", "192125.868000", "192125.871000", "192125.874000", "192125.878000", "192205.789000", "192205.793000", "192205.796000", "192205.800000", "192205.803000", "192205.806000", "192205.810000", "192205.813000", "192205.816000", "192205.820000", "192205.823000", "192205.826000", "192205.830000", "192205.833000", "192205.836000", "192205.840000", "192205.843000", "192205.846000", "192205.850000", "192205.853000", "192205.857000", "192205.860000", "192205.863000", "192205.867000", "192205.870000", "192205.873000", "192205.877000", "192245.788000", "192245.792000", "192245.795000", "192245.799000", "192245.802000", "192245.805000", "192245.809000", "192245.812000", "192245.816000", "192245.819000", "192245.822000", "192245.825000", "192245.829000", "192245.832000", "192245.836000", "192245.839000", "192245.842000", "192245.845000", "192245.849000", "192245.852000", "192245.855000", "192245.859000", "192245.862000", "192245.865000", "192245.869000", "192245.872000", "192245.876000", "192325.788000", "192325.792000", "192325.795000", "192325.799000", "192325.802000", "192325.805000", "192325.809000", "192325.812000", "192325.815000", "192325.819000", "192325.822000", "192325.825000", "192325.829000", "192325.832000", "192325.835000", "192325.839000", "192325.842000", "192325.845000", "192325.849000", "192325.852000", "192325.855000", "192325.859000", "192325.862000", "192325.865000", "192325.869000", "192325.872000", "192325.875000", "192405.789000", "192405.793000", "192405.796000", "192405.800000", "192405.803000", "192405.807000", "192405.810000", "192405.814000", "192405.817000", "192405.821000", "192405.824000", "192405.828000", "192405.831000", "192405.834000", "192405.837000", "192405.841000", "192405.844000", "192405.847000", "192405.851000", "192405.854000", "192405.858000", "192405.861000", "192405.864000", "192405.868000", "192405.871000", "192405.874000", "192405.878000", "192445.789000", "192445.793000", "192445.796000", "192445.800000", "192445.803000", "192445.807000", "192445.810000", "192445.814000", "192445.817000", "192445.821000", "192445.835000", "192445.839000", "192445.842000", "192445.845000", "192445.849000", "192445.852000", "192445.855000", "192445.859000", "192445.862000", "192445.865000", "192445.869000", "192445.872000", "192445.875000", "192445.879000", "192445.882000", "192445.885000", "192445.889000", "192525.788000", "192525.792000", "192525.795000", "192525.799000", "192525.802000", "192525.806000", "192525.809000", "192525.813000", "192525.816000", "192525.819000", "192525.823000", "192525.826000", "192525.829000", "192525.833000", "192525.836000", "192525.839000", "192525.843000", "192525.846000", "192525.849000", "192525.853000", "192525.856000", "192525.859000", "192525.863000", "192525.866000", "192525.869000", "192525.873000", "192525.876000", "192545.789000", "192545.792000", "192545.796000", "192545.800000", "192545.803000", "192545.807000", "192545.810000", "192545.813000", "192545.817000", "192545.820000", "192545.823000", "192545.827000", "192545.830000", "192609.042000", "192609.046000", "192609.050000", "192609.053000", "192609.057000", "192609.060000", "192609.063000", "192609.067000", "192609.070000", "192609.074000", "192609.077000", "192609.080000", "192609.084000", "192609.087000", "192609.090000", "192609.094000"],
      "InstanceCreationTime": ["191925.821000", "191925.825000", "191925.828000", "191925.832000", "191925.835000", "191925.839000", "191925.842000", "191925.845000", "191925.849000", "191925.852000", "191925.855000", "191925.859000", "191925.862000", "191925.866000", "191925.870000", "191925.873000", "191925.876000", "191925.880000", "191925.884000", "191925.887000", "191925.890000", "191925.894000", "191925.897000", "191945.789000", "191945.793000", "191945.796000", "191945.800000", "191945.803000", "191945.807000", "191945.810000", "191945.814000", "191945.817000", "191945.821000", "191945.824000", "191945.828000", "191945.831000", "191945.834000", "191945.837000", "191945.841000", "191945.844000", "191945.848000", "191945.852000", "191945.855000", "192005.789000", "192005.793000", "192005.796000", "192005.800000", "192005.803000", "192005.806000", "192005.810000", "192005.813000", "192005.816000", "192005.820000", "192005.823000", "192005.826000", "192005.830000", "192005.833000", "192005.836000", "192005.840000", "192005.843000", "192005.846000", "192005.850000", "192005.853000", "192025.788000", "192025.792000", "192025.795000", "192025.799000", "192025.802000", "192025.805000", "192025.809000", "192025.812000", "192025.823000", "192025.826000", "192025.830000", "192025.842000", "192025.845000", "192025.849000", "192025.852000", "192025.856000", "192025.859000", "192025.862000", "192025.866000", "192025.869000", "192045.788000", "192045.792000", "192045.795000", "192045.799000", "192045.802000", "192045.805000", "192045.809000", "192045.812000", "192045.815000", "192045.819000", "192045.822000", "192045.826000", "192045.829000", "192045.832000", "192045.836000", "192045.839000", "192045.843000", "192045.846000", "192045.849000", "192045.853000", "192125.788000", "192125.792000", "192125.795000", "192125.799000", "192125.802000", "192125.806000", "192125.809000", "192125.818000", "192125.821000", "192125.824000", "192125.828000", "192125.831000", "192125.835000", "192125.838000", "192125.841000", "192125.845000", "192125.848000", "192125.851000", "192125.855000", "192125.858000", "192125.861000", "192125.864000", "192125.868000", "192125.871000", "192125.874000", "192125.878000", "192205.789000", "192205.793000", "192205.796000", "192205.800000", "192205.803000", "192205.806000", "192205.810000", "192205.813000", "192205.816000", "192205.820000", "192205.823000", "192205.826000", "192205.830000", "192205.833000", "192205.836000", "192205.840000", "192205.843000", "192205.846000", "192205.850000", "192205.853000", "192205.857000", "192205.860000", "192205.863000", "192205.867000", "192205.870000", "192205.873000", "192205.877000", "192245.788000", "192245.792000", "192245.795000", "192245.799000", "192245.802000", "192245.805000", "192245.809000", "192245.812000", "192245.816000", "192245.819000", "192245.822000", "192245.825000", "192245.829000", "192245.832000", "192245.836000", "192245.839000", "192245.842000", "192245.845000", "192245.849000", "192245.852000", "192245.855000", "192245.859000", "192245.862000", "192245.865000", "192245.869000", "192245.872000", "192245.876000", "192325.788000", "192325.792000", "192325.795000", "192325.799000", "192325.802000", "192325.805000", "192325.809000", "192325.812000", "192325.815000", "192325.819000", "192325.822000", "192325.825000", "192325.829000", "192325.832000", "192325.835000", "192325.839000", "192325.842000", "192325.845000", "192325.849000", "192325.852000", "192325.855000", "192325.859000", "192325.862000", "192325.865000", "192325.869000", "192325.872000", "192325.875000", "192405.789000", "192405.793000", "192405.796000", "192405.800000", "192405.803000", "192405.807000", "192405.810000", "192405.814000", "192405.817000", "192405.821000", "192405.824000", "192405.828000", "192405.831000", "192405.834000", "192405.837000", "192405.841000", "192405.844000", "192405.847000", "192405.851000", "192405.854000", "192405.858000", "192405.861000", "192405.864000", "192405.868000", "192405.871000", "192405.874000", "192405.878000", "192445.789000", "192445.793000", "192445.796000", "192445.800000", "192445.803000", "192445.807000", "192445.810000", "192445.814000", "192445.817000", "192445.821000", "192445.835000", "192445.839000", "192445.842000", "192445.845000", "192445.849000", "192445.852000", "192445.855000", "192445.859000", "192445.862000", "192445.865000", "192445.869000", "192445.872000", "192445.875000", "192445.879000", "192445.882000", "192445.885000", "192445.889000", "192525.788000", "192525.792000", "192525.795000", "192525.799000", "192525.802000", "192525.806000", "192525.809000", "192525.813000", "192525.816000", "192525.819000", "192525.823000", "192525.826000", "192525.829000", "192525.833000", "192525.836000", "192525.839000", "192525.843000", "192525.846000", "192525.849000", "192525.853000", "192525.856000", "192525.859000", "192525.863000", "192525.866000", "192525.869000", "192525.873000", "192525.876000", "192545.789000", "192545.792000", "192545.796000", "192545.800000", "192545.803000", "192545.807000", "192545.810000", "192545.813000", "192545.817000", "192545.820000", "192545.823000", "192545.827000", "192545.830000", "192609.042000", "192609.046000", "192609.050000", "192609.053000", "192609.057000", "192609.060000", "192609.063000", "192609.067000", "192609.070000", "192609.074000", "192609.077000", "192609.080000", "192609.084000", "192609.087000", "192609.090000", "192609.094000"],
      "InstanceNumber": [1, 2, 3, 4, 5, 6, 7, 8, 9, 10, 11, 12, 13, 14, 15, 16, 17, 18, 19, 20, 21, 22, 23, 24, 25, 26, 27, 28, 29, 30, 31, 32, 33, 34, 35, 36, 37, 38, 39, 40, 41, 42, 43, 44, 45, 46, 47, 48, 49, 50, 51, 52, 53, 54, 55, 56, 57, 58, 59, 60, 61, 62, 63, 64, 65, 66, 67, 68, 69, 70, 71, 72, 73, 74, 75, 76, 77, 78, 79, 80, 81, 82, 83, 84, 85, 86, 87, 88, 89, 90, 91, 92, 93, 94, 95, 96, 97, 98, 99, 100, 101, 102, 103, 104, 105, 106, 107, 108, 109, 110, 111, 112, 113, 114, 115, 116, 117, 118, 119, 120, 121, 122, 123, 124, 125, 126, 127, 128, 129, 130, 131, 132, 133, 134, 135, 136, 137, 138, 139, 140, 141, 142, 143, 144, 145, 146, 147, 148, 149, 150, 151, 152, 153, 154, 155, 156, 157, 158, 159, 160, 161, 162, 163, 164, 165, 166, 167, 168, 169, 170, 171, 172, 173, 174, 175, 176, 177, 178, 179, 180, 181, 182, 183, 184, 185, 186, 187, 188, 189, 190, 191, 192, 193, 194, 195, 196, 197, 198, 199, 200, 201, 202, 203, 204, 205, 206, 207, 208, 209, 210, 211, 212, 213, 214, 215, 216, 217, 218, 219, 220, 221, 222, 223, 224, 225, 226, 227, 228, 229, 230, 231, 232, 233, 234, 235, 236, 237, 238, 239, 240, 241, 242, 243, 244, 245, 246, 247, 248, 249, 250, 251, 252, 253, 254, 255, 256, 257, 258, 259, 260, 261, 262, 263, 264, 265, 266, 267, 268, 269, 270, 271, 272, 273, 274, 275, 276, 277, 278, 279, 280, 281, 282, 283, 284, 285, 286, 287, 288, 289, 290, 291, 292, 293, 294, 295, 296, 297, 298, 299, 300, 301, 302, 303, 304, 305, 306, 307, 308, 309, 310, 311, 312, 313, 314, 315, 316, 317, 318, 319, 320],
      "LargestImagePixelValue": [59112, 57747, 57033, 55814, 57054, 55792, 56373, 55985, 56417, 56199, 56367, 55943, 56051, 56580, 55125, 56327, 55058, 55568, 55811, 55974, 56021, 56063, 55884, 55633, 56222, 55796, 55670, 55859, 56351, 55073, 55804, 55303, 55274, 55474, 55191, 55785, 55316, 55546, 55197, 55562, 55576, 55458, 55393, 55356, 55216, 55724, 55460, 55674, 55507, 55799, 55681, 55600, 56174, 55059, 55904, 54945, 55917, 54956, 55430, 55314, 54975, 55526, 54917, 55331, 54482, 54735, 54839, 55167, 55102, 55105, 55001, 54790, 54230, 55153, 54674, 54984, 54843, 54579, 55151, 54661, 54476, 54404, 54587, 54216, 54213, 54326, 55016, 54664, 54154, 55106, 56647, 55341, 54579, 55610, 55999, 55067, 55136, 55518, 56212, 56238, 55780, 55808, 55125, 55168, 54820, 54774, 55580, 54821, 55483, 54787, 54694, 55385, 54602, 55271, 55664, 54855, 55770, 54913, 55803, 54822, 55741, 55230, 55077, 55538, 55142, 55773, 54885, 55334, 54804, 55399, 55141, 54983, 54824, 54694, 55193, 54383, 55094, 54697, 55106, 55098, 54728, 55278, 55354, 55157, 55566, 54712, 55793, 55250, 55607, 55762, 55959, 56242, 56923, 55899, 55142, 55646, 55513, 55602, 55981, 56020, 56043, 56465, 55944, 56373, 55748, 56376, 55464, 55995, 55864, 56131, 55285, 55674, 55977, 55342, 55502, 54562, 55205, 55305, 55493, 55384, 54840, 55200, 55083, 55608, 55437, 55441, 55170, 55534, 55130, 54761, 54941, 55250, 55196, 54591, 55532, 55706, 55468, 55686, 55492, 56090, 55949, 55829, 55180, 55539, 55694, 56181, 55402, 55804, 55648, 56103, 55635, 56267, 55718, 56495, 56119, 56276, 55699, 56033, 55714, 56349, 55947, 56005, 56001, 55810, 55784, 55777, 55173, 54926, 55987, 55989, 56484, 55800, 56363, 56115, 55724, 55670, 55494, 56138, 55510, 55610, 55900, 55645, 55538, 55940, 55970, 55971, 54491, 56126, 55748, 55497, 55088, 54778, 54882, 54970, 52367, 60239, 57727, 56300, 56144, 56525, 56930, 55980, 56070, 55711, 55740, 55352, 55433, 56036, 55617, 55560, 55924, 55399, 55707, 55692, 56223, 55804, 56031, 55818, 55886, 55809, 56075, 56210, 55936, 56133, 55574, 55736, 56120, 55837, 56035, 56078, 55946, 56581, 56058, 55698, 56111, 56085, 56119, 55847, 56061, 55904, 56242, 56407, 55638, 55598, 55618, 56266, 55826, 55861, 55854, 55439, 55725, 55227, 55556, 55454, 55511, 55732, 55641, 55515, 55014, 55634],
