{
  "AcquisitionMatrixPE": 104,
  "AcquisitionNumber": 1,
  "AcquisitionTime": "19:18:11.717500",
  "BandwidthPerPixelPhaseEncode": 17.17,
  "BaseResolution": 104,
  "BodyPartExamined": "BRAIN",
  "CoilCombinationMethod": "Sum of Squares",
  "ConsistencyInfo": "N4_VE11C_LATEST_20160120",
  "ConversionSoftware": "dcm2niix",
  "ConversionSoftwareVersion": "v1.0.20220505",
  "DerivedVendorReportedEchoSpacing": 0.000560011,
  "DeviceSerialNumber": "167006",
  "DwellTime": 2.1e-06,
  "EchoTime": 0.037,
  "EchoTime1": 0.037,
  "EchoTime2": 0.001,
  "EchoTrainLength": 104,
  "EffectiveEchoSpacing": 0.000560011,
  "FlipAngle": 52,
  "HeudiconvVersion": "0.5.3.post811+g6206e14",
  "ImageComments": "Unaliased MB4/PE3/LB",
  "ImageOrientationPatientDICOM": [0.999316, -0.0313383, 0.0196295, 0.036294, 0.932881, -0.358352],
  "ImageOrientationText": "Tra>Cor(-21.0)>Sag(0.4)",
  "ImageType": [
    "ORIGINAL",
    "PRIMARY",
    "P",
    "MB",
    "ND",
    "MOSAIC",
    "PHASE"
],
  "ImagingFrequency": 123.26,
  "InPlanePhaseEncodingDirectionDICOM": "COL",
  "InstitutionAddress": "Chemin Queen-Mary 4565,Montreal,District,CA,H3W 1W5",
  "InstitutionName": "IUGM",
  "InstitutionalDepartmentName": "Department",
  "MRAcquisitionType": "2D",
  "MagneticFieldStrength": 3,
  "Manufacturer": "Siemens",
  "ManufacturersModelName": "Prisma_fit",
  "MatrixCoilMode": "SENSE",
  "Modality": "MR",
  "MultibandAccelerationFactor": 4,
  "PartialFourier": 1,
  "PatientPosition": "HFS",
  "PercentPhaseFOV": 100,
  "PercentSampling": 100,
  "PhaseEncodingDirection": "j",
  "PhaseEncodingSteps": 104,
  "PhaseResolution": 1,
  "PixelBandwidth": 2290,
  "ProcedureStepDescription": "games^mario3",
  "ProtocolName": "func_task-mario3_run-02",
  "PulseSequenceDetails": "%CustomerSeq%\\cmrr_mbep2d_bold",
  "ReceiveCoilActiveElements": "HC1-7;NC1,2",
  "ReceiveCoilName": "HeadNeck_64",
  "ReconMatrixPE": 104,
  "RepetitionTime": 1.49,
  "SAR": 0.0830488,
  "ScanOptions": "FS",
  "ScanningSequence": "EP",
  "SequenceName": "epfid2d1_104",
  "SequenceVariant": "SK\\SS",
  "SeriesDescription": "func_task-mario3_run-02",
  "SeriesNumber": 14,
  "ShimSetting": [605, -7271, -8809, 436, 29, -353, -24, 33],
  "SliceThickness": 2,
  "SliceTiming": [0, 0.7825, 0.0975, 0.88, 0.195, 0.98, 0.2925, 1.0775, 0.39, 1.175, 0.49, 1.2725, 0.5875, 1.37, 0.685, 0, 0.7825, 0.0975, 0.88, 0.195, 0.98, 0.2925, 1.0775, 0.39, 1.175, 0.49, 1.2725, 0.5875, 1.37, 0.685, 0, 0.7825, 0.0975, 0.88, 0.195, 0.98, 0.2925, 1.0775, 0.39, 1.175, 0.49, 1.2725, 0.5875, 1.37, 0.685, 0, 0.7825, 0.0975, 0.88, 0.195, 0.98, 0.2925, 1.0775, 0.39, 1.175, 0.49, 1.2725, 0.5875, 1.37, 0.685],
  "SoftwareVersions": "syngo MR E11",
  "SpacingBetweenSlices": 2,
  "StationName": "MRC35049",
  "TaskName": "mario3",
  "TotalReadoutTime": 0.0576811,
  "TxRefAmp": 321.111,
  "WipMemBlock": "afcf6a99-1883-4fbc-90fb-687ed12b0498||Sequence: R017 ve11c/master r/75a17815+; Jun 28 2022 16:32:11 by eja",
  "dcmmeta_affine": [
    [-1.9986320734024048, 0.07258794456720352, 0.014163627289235592, 100.1351547241211],
    [0.06267659366130829, 1.8657618761062622, -0.7176381349563599, -72.24271392822266],
    [0.039258915930986404, 0.716703474521637, 1.866760492324829, -58.66277313232422],
    [0.0, 0.0, 0.0, 1.0]
],
  "dcmmeta_reorient_transform": [
    [0.0, -1.0, 0.0, 103.0],
    [1.0, 0.0, 0.0, 0.0],
    [0.0, 0.0, 1.0, 0.0],
    [0.0, 0.0, 0.0, 1.0]
],
  "dcmmeta_shape": [104, 104, 60, 320],
  "dcmmeta_slice_dim": 2,
  "dcmmeta_version": 0.6,
  "global": {
    "const": {
      "AcquisitionMatrix": [104, 0, 0, 104],
      "AngioFlag": "N",
      "BitsAllocated": 16,
      "BitsStored": 16,
      "BodyPartExamined": "BRAIN",
      "Columns": 832,
      "EchoNumbers": 1,
      "EchoTime": 37.0,
      "EchoTrainLength": 104,
      "FlipAngle": 52.0,
      "HighBit": 15,
      "ImageOrientationPatient": [0.99931606384249, -0.0313382980311, 0.01962945803785, 0.03629397281602, 0.93288090907746, -0.3583517224963],
      "ImagePositionPatient": [-861.53581898137, -776.25377671614, 261.74748890978],
      "ImageType": [
        "ORIGINAL",
        "PRIMARY",
        "P",
        "MB",
        "ND",
        "MOSAIC"
],
      "ImagedNucleus": "1H",
      "ImagingFrequency": 123.26018,
      "InPlanePhaseEncodingDirection": "COL",
      "LargestImagePixelValue": 4095,
      "MRAcquisitionType": "2D",
      "MagneticFieldStrength": 3.0,
      "Manufacturer": "SIEMENS",
      "ManufacturerModelName": "Prisma_fit",
      "Modality": "MR",
      "NumberOfAverages": 1.0,
      "NumberOfPhaseEncodingSteps": 104,
      "PercentPhaseFieldOfView": 100.0,
      "PercentSampling": 100.0,
      "PerformedProcedureStepStartTime": "190617.761000",
      "PhotometricInterpretation": "MONOCHROME2",
      "PixelBandwidth": 2290.0,
      "PixelRepresentation": 0,
      "PixelSpacing": [2.0, 2.0],
      "ProtocolName": "func_task-mario3_run-02",
      "RepetitionTime": 1490.0,
      "RescaleIntercept": -4096.0,
      "RescaleSlope": 2.0,
      "RescaleType": "US",
      "Rows": 832,
      "SAR": 0.08304876729367,
      "SamplesPerPixel": 1,
      "ScanOptions": "FS",
      "ScanningSequence": "EP",
      "SequenceName": "epfid2d1_104",
      "SequenceVariant": [
        "SK",
        "SS"
],
      "SeriesDescription": "func_task-mario3_run-02",
      "SeriesNumber": 14,
      "SeriesTime": "191925.934000",
      "SliceLocation": -28.123475658949,
      "SliceThickness": 2.0,
      "SmallestImagePixelValue": 0,
      "SoftwareVersions": "syngo MR E11",
      "SpacingBetweenSlices": 1.9999999702571,
      "SpecificCharacterSet": "ISO_IR 100",
      "StudyID": "1",
      "StudyTime": "190617.684000",
      "TransmitCoilName": "Body",
      "VariableFlipAngleFlag": "N",
      "WindowCenterWidthExplanation": "Algo1",
      "dBdt": 0.0},
    "slices": {}
  },
  "time": {
    "samples": {
      "AcquisitionNumber": [1, 2, 3, 4, 5, 6, 7, 8, 9, 10, 11, 12, 13, 14, 15, 16, 17, 18, 19, 20, 21, 22, 23, 24, 25, 26, 27, 28, 29, 30, 31, 32, 33, 34, 35, 36, 37, 38, 39, 40, 41, 42, 43, 44, 45, 46, 47, 48, 49, 50, 51, 52, 53, 54, 55, 56, 57, 58, 59, 60, 61, 62, 63, 64, 65, 66, 67, 68, 69, 70, 71, 72, 73, 74, 75, 76, 77, 78, 79, 80, 81, 82, 83, 84, 85, 86, 87, 88, 89, 90, 91, 92, 93, 94, 95, 96, 97, 98, 99, 100, 101, 102, 103, 104, 105, 106, 107, 108, 109, 110, 111, 112, 113, 114, 115, 116, 117, 118, 119, 120, 121, 122, 123, 124, 125, 126, 127, 128, 129, 130, 131, 132, 133, 134, 135, 136, 137, 138, 139, 140, 141, 142, 143, 144, 145, 146, 147, 148, 149, 150, 151, 152, 153, 154, 155, 156, 157, 158, 159, 160, 161, 162, 163, 164, 165, 166, 167, 168, 169, 170, 171, 172, 173, 174, 175, 176, 177, 178, 179, 180, 181, 182, 183, 184, 185, 186, 187, 188, 189, 190, 191, 192, 193, 194, 195, 196, 197, 198, 199, 200, 201, 202, 203, 204, 205, 206, 207, 208, 209, 210, 211, 212, 213, 214, 215, 216, 217, 218, 219, 220, 221, 222, 223, 224, 225, 226, 227, 228, 229, 230, 231, 232, 233, 234, 235, 236, 237, 238, 239, 240, 241, 242, 243, 244, 245, 246, 247, 248, 249, 250, 251, 252, 253, 254, 255, 256, 257, 258, 259, 260, 261, 262, 263, 264, 265, 266, 267, 268, 269, 270, 271, 272, 273, 274, 275, 276, 277, 278, 279, 280, 281, 282, 283, 284, 285, 286, 287, 288, 289, 290, 291, 292, 293, 294, 295, 296, 297, 298, 299, 300, 301, 302, 303, 304, 305, 306, 307, 308, 309, 310, 311, 312, 313, 314, 315, 316, 317, 318, 319, 320],
      "AcquisitionTime": ["191811.717500", "191813.207500", "191814.697500", "191816.187500", "191817.677500", "191819.167500", "191820.657500", "191822.147500", "191823.637500", "191825.127500", "191826.617500", "191828.107500", "191829.597500", "191831.087500", "191832.577500", "191834.067500", "191835.557500", "191837.047500", "191838.537500", "191840.027500", "191841.517500", "191843.007500", "191844.497500", "191845.987500", "191847.477500", "191848.967500", "191850.457500", "191851.947500", "191853.437500", "191854.927500", "191856.417500", "191857.907500", "191859.397500", "191900.887500", "191902.377500", "191903.867500", "191905.357500", "191906.847500", "191908.337500", "191909.827500", "191911.317500", "191912.807500", "191914.297500", "191915.787500", "191917.277500", "191918.767500", "191920.257500", "191921.747500", "191923.237500", "191924.727500", "191926.217500", "191927.707500", "191929.197500", "191930.687500", "191932.177500", "191933.667500", "191935.157500", "191936.647500", "191938.137500", "191939.627500", "191941.117500", "191942.607500", "191944.097500", "191945.587500", "191947.077500", "191948.567500", "191950.057500", "191951.547500", "191953.037500", "191954.527500", "191956.017500", "191957.507500", "191958.997500", "192000.487500", "192001.977500", "192003.467500", "192004.957500", "192006.447500", "192007.937500", "192009.427500", "192010.917500", "192012.407500", "192013.897500", "192015.387500", "192016.877500", "192018.367500", "192019.857500", "192021.347500", "192022.837500", "192024.327500", "192025.817500", "192027.307500", "192028.797500", "192030.287500", "192031.777500", "192033.267500", "192034.757500", "192036.247500", "192037.737500", "192039.227500", "192040.717500", "192042.207500", "192043.697500", "192045.187500", "192046.677500", "192048.167500", "192049.657500", "192051.147500", "192052.637500", "192054.127500", "192055.617500", "192057.107500", "192058.597500", "192100.087500", "192101.577500", "192103.067500", "192104.557500", "192106.047500", "192107.537500", "192109.027500", "192110.517500", "192112.007500", "192113.497500", "192114.987500", "192116.477500", "192117.967500", "192119.457500", "192120.947500", "192122.437500", "192123.927500", "192125.417500", "192126.907500", "192128.397500", "192129.887500", "192131.377500", "192132.867500", "192134.357500", "192135.847500", "192137.337500", "192138.827500", "192140.317500", "192141.807500", "192143.297500", "192144.787500", "192146.277500", "192147.767500", "192149.257500", "192150.747500", "192152.237500", "192153.727500", "192155.217500", "192156.707500", "192158.197500", "192159.687500", "192201.177500", "192202.667500", "192204.157500", "192205.647500", "192207.137500", "192208.627500", "192210.117500", "192211.607500", "192213.097500", "192214.587500", "192216.077500", "192217.567500", "192219.057500", "192220.547500", "192222.037500", "192223.527500", "192225.017500", "192226.507500", "192227.997500", "192229.487500", "192230.977500", "192232.467500", "192233.957500", "192235.447500", "192236.937500", "192238.427500", "192239.917500", "192241.407500", "192242.897500", "192244.387500", "192245.877500", "192247.367500", "192248.857500", "192250.347500", "192251.837500", "192253.327500", "192254.817500", "192256.307500", "192257.797500", "192259.287500", "192300.777500", "192302.267500", "192303.757500", "192305.247500", "192306.737500", "192308.227500", "192309.717500", "192311.207500", "192312.697500", "192314.187500", "192315.677500", "192317.167500", "192318.657500", "192320.147500", "192321.637500", "192323.127500", "192324.617500", "192326.107500", "192327.597500", "192329.087500", "192330.577500", "192332.067500", "192333.557500", "192335.047500", "192336.537500", "192338.027500", "192339.517500", "192341.007500", "192342.497500", "192343.987500", "192345.477500", "192346.967500", "192348.457500", "192349.947500", "192351.437500", "192352.927500", "192354.417500", "192355.907500", "192357.397500", "192358.887500", "192400.377500", "192401.867500", "192403.357500", "192404.847500", "192406.337500", "192407.827500", "192409.317500", "192410.807500", "192412.297500", "192413.787500", "192415.277500", "192416.767500", "192418.257500", "192419.747500", "192421.237500", "192422.727500", "192424.217500", "192425.707500", "192427.197500", "192428.687500", "192430.177500", "192431.667500", "192433.157500", "192434.647500", "192436.137500", "192437.627500", "192439.117500", "192440.607500", "192442.097500", "192443.587500", "192445.077500", "192446.567500", "192448.057500", "192449.547500", "192451.037500", "192452.527500", "192454.017500", "192455.507500", "192456.997500", "192458.487500", "192459.977500", "192501.467500", "192502.957500", "192504.447500", "192505.937500", "192507.427500", "192508.917500", "192510.407500", "192511.897500", "192513.387500", "192514.877500", "192516.367500", "192517.857500", "192519.347500", "192520.837500", "192522.327500", "192523.817500", "192525.307500", "192526.797500", "192528.287500", "192529.777500", "192531.267500", "192532.757500", "192534.247500", "192535.737500", "192537.227500", "192538.717500", "192540.207500", "192541.697500", "192543.187500", "192544.677500", "192546.167500", "192547.657500", "192549.147500", "192550.637500", "192552.127500", "192553.617500", "192555.107500", "192556.597500", "192558.087500", "192559.577500", "192601.067500", "192602.557500", "192604.047500", "192605.537500", "192607.027500"],
      "ContentTime": ["191925.936000", "191925.943000", "191925.945000", "191925.948000", "191925.950000", "191925.953000", "191925.955000", "191925.958000", "191925.960000", "191925.963000", "191925.965000", "191925.968000", "191925.970000", "191925.973000", "191925.975000", "191925.978000", "191925.980000", "191925.983000", "191925.985000", "191925.988000", "191925.990000", "191925.993000", "191925.995000", "191945.899000", "191945.902000", "191945.905000", "191945.907000", "191945.910000", "191945.912000", "191945.915000", "191945.917000", "191945.920000", "191945.922000", "191945.925000", "191945.927000", "191945.930000", "191945.932000", "191945.935000", "191945.937000", "191945.940000", "191945.942000", "191945.945000", "191945.947000", "192005.887000", "192005.890000", "192005.892000", "192005.895000", "192005.897000", "192005.900000", "192005.902000", "192005.905000", "192005.907000", "192005.910000", "192005.912000", "192005.915000", "192005.917000", "192005.920000", "192005.922000", "192005.925000", "192005.927000", "192005.930000", "192005.932000", "192005.935000", "192025.919000", "192025.922000", "192025.925000", "192025.927000", "192025.930000", "192025.932000", "192025.935000", "192025.937000", "192025.940000", "192025.942000", "192025.945000", "192025.947000", "192025.950000", "192025.952000", "192025.955000", "192025.957000", "192025.960000", "192025.962000", "192025.965000", "192025.967000", "192045.885000", "192045.887000", "192045.890000", "192045.892000", "192045.895000", "192045.897000", "192045.900000", "192045.902000", "192045.905000", "192045.907000", "192045.910000", "192045.912000", "192045.915000", "192045.917000", "192045.920000", "192045.922000", "192045.925000", "192045.927000", "192045.930000", "192045.933000", "192125.926000", "192125.929000", "192125.932000", "192125.934000", "192125.937000", "192125.939000", "192125.942000", "192125.944000", "192125.947000", "192125.949000", "192125.952000", "192125.954000", "192125.957000", "192125.959000", "192125.962000", "192125.965000", "192125.967000", "192125.970000", "192125.973000", "192125.975000", "192125.978000", "192125.980000", "192125.983000", "192125.985000", "192125.988000", "192125.990000", "192205.935000", "192205.938000", "192205.941000", "192205.943000", "192205.946000", "192205.948000", "192205.951000", "192205.953000", "192205.956000", "192205.958000", "192205.961000", "192205.964000", "192205.966000", "192205.969000", "192205.972000", "192205.974000", "192205.977000", "192205.979000", "192205.982000", "192206.000000", "192206.003000", "192206.005000", "192206.008000", "192206.010000", "192206.013000", "192206.016000", "192206.018000", "192245.921000", "192245.924000", "192245.926000", "192245.929000", "192245.931000", "192245.934000", "192245.936000", "192245.939000", "192245.941000", "192245.944000", "192245.946000", "192245.949000", "192245.951000", "192245.954000", "192245.957000", "192245.959000", "192245.962000", "192245.964000", "192245.967000", "192245.969000", "192245.972000", "192245.974000", "192245.977000", "192245.979000", "192245.982000", "192245.984000", "192245.987000", "192325.929000", "192325.932000", "192325.935000", "192325.938000", "192325.941000", "192325.944000", "192325.946000", "192325.949000", "192325.951000", "192325.954000", "192325.956000", "192325.959000", "192325.962000", "192325.964000", "192325.967000", "192325.969000", "192325.972000", "192325.974000", "192325.977000", "192325.979000", "192325.982000", "192325.984000", "192325.987000", "192325.989000", "192325.992000", "192325.994000", "192325.997000", "192406.399000", "192406.402000", "192406.404000", "192406.407000", "192406.410000", "192406.412000", "192406.415000", "192406.417000", "192406.420000", "192406.422000", "192406.425000", "192406.427000", "192406.430000", "192406.432000", "192406.435000", "192406.437000", "192406.440000", "192406.443000", "192406.445000", "192406.448000", "192406.450000", "192406.453000", "192406.455000", "192406.458000", "192406.460000", "192406.463000", "192406.465000", "192445.940000", "192445.943000", "192445.945000", "192445.948000", "192445.950000", "192445.953000", "192445.955000", "192445.958000", "192445.960000", "192445.963000", "192445.965000", "192445.968000", "192445.971000", "192445.973000", "192445.976000", "192445.978000", "192445.981000", "192445.983000", "192445.986000", "192445.988000", "192445.991000", "192445.993000", "192445.996000", "192446.000000", "192446.002000", "192446.005000", "192446.007000", "192525.936000", "192525.939000", "192525.942000", "192525.944000", "192525.947000", "192525.949000", "192525.952000", "192525.954000", "192525.957000", "192525.959000", "192525.962000", "192525.964000", "192525.967000", "192525.970000", "192525.972000", "192525.975000", "192525.977000", "192525.980000", "192525.982000", "192525.985000", "192525.987000", "192525.990000", "192525.992000", "192525.995000", "192525.997000", "192526.001000", "192526.004000", "192545.872000", "192545.875000", "192545.877000", "192545.880000", "192545.882000", "192545.885000", "192545.888000", "192545.890000", "192545.893000", "192545.895000", "192545.898000", "192545.900000", "192545.903000", "192609.134000", "192609.136000", "192609.139000", "192609.141000", "192609.144000", "192609.146000", "192609.149000", "192609.151000", "192609.154000", "192609.156000", "192609.159000", "192609.161000", "192609.164000", "192609.166000", "192609.169000", "192609.172000"],
      "InstanceCreationTime": ["191925.936000", "191925.943000", "191925.945000", "191925.948000", "191925.950000", "191925.953000", "191925.955000", "191925.958000", "191925.960000", "191925.963000", "191925.965000", "191925.968000", "191925.970000", "191925.973000", "191925.975000", "191925.978000", "191925.980000", "191925.983000", "191925.985000", "191925.988000", "191925.990000", "191925.993000", "191925.995000", "191945.899000", "191945.902000", "191945.905000", "191945.907000", "191945.910000", "191945.912000", "191945.915000", "191945.917000", "191945.920000", "191945.922000", "191945.925000", "191945.927000", "191945.930000", "191945.932000", "191945.935000", "191945.937000", "191945.940000", "191945.942000", "191945.945000", "191945.947000", "192005.887000", "192005.890000", "192005.892000", "192005.895000", "192005.897000", "192005.900000", "192005.902000", "192005.905000", "192005.907000", "192005.910000", "192005.912000", "192005.915000", "192005.917000", "192005.920000", "192005.922000", "192005.925000", "192005.927000", "192005.930000", "192005.932000", "192005.935000", "192025.919000", "192025.922000", "192025.925000", "192025.927000", "192025.930000", "192025.932000", "192025.935000", "192025.937000", "192025.940000", "192025.942000", "192025.945000", "192025.947000", "192025.950000", "192025.952000", "192025.955000", "192025.957000", "192025.960000", "192025.962000", "192025.965000", "192025.967000", "192045.885000", "192045.887000", "192045.890000", "192045.892000", "192045.895000", "192045.897000", "192045.900000", "192045.902000", "192045.905000", "192045.907000", "192045.910000", "192045.912000", "192045.915000", "192045.917000", "192045.920000", "192045.922000", "192045.925000", "192045.927000", "192045.930000", "192045.933000", "192125.926000", "192125.929000", "192125.932000", "192125.934000", "192125.937000", "192125.939000", "192125.942000", "192125.944000", "192125.947000", "192125.949000", "192125.952000", "192125.954000", "192125.957000", "192125.959000", "192125.962000", "192125.965000", "192125.967000", "192125.970000", "192125.973000", "192125.975000", "192125.978000", "192125.980000", "192125.983000", "192125.985000", "192125.988000", "192125.990000", "192205.935000", "192205.938000", "192205.941000", "192205.943000", "192205.946000", "192205.948000", "192205.951000", "192205.953000", "192205.956000", "192205.958000", "192205.961000", "192205.964000", "192205.966000", "192205.969000", "192205.972000", "192205.974000", "192205.977000", "192205.979000", "192205.982000", "192206.000000", "192206.003000", "192206.005000", "192206.008000", "192206.010000", "192206.013000", "192206.016000", "192206.018000", "192245.921000", "192245.924000", "192245.926000", "192245.929000", "192245.931000", "192245.934000", "192245.936000", "192245.939000", "192245.941000", "192245.944000", "192245.946000", "192245.949000", "192245.951000", "192245.954000", "192245.957000", "192245.959000", "192245.962000", "192245.964000", "192245.967000", "192245.969000", "192245.972000", "192245.974000", "192245.977000", "192245.979000", "192245.982000", "192245.984000", "192245.987000", "192325.929000", "192325.932000", "192325.935000", "192325.938000", "192325.941000", "192325.944000", "192325.946000", "192325.949000", "192325.951000", "192325.954000", "192325.956000", "192325.959000", "192325.962000", "192325.964000", "192325.967000", "192325.969000", "192325.972000", "192325.974000", "192325.977000", "192325.979000", "192325.982000", "192325.984000", "192325.987000", "192325.989000", "192325.992000", "192325.994000", "192325.997000", "192406.399000", "192406.402000", "192406.404000", "192406.407000", "192406.410000", "192406.412000", "192406.415000", "192406.417000", "192406.420000", "192406.422000", "192406.425000", "192406.427000", "192406.430000", "192406.432000", "192406.435000", "192406.437000", "192406.440000", "192406.443000", "192406.445000", "192406.448000", "192406.450000", "192406.453000", "192406.455000", "192406.458000", "192406.460000", "192406.463000", "192406.465000", "192445.940000", "192445.943000", "192445.945000", "192445.948000", "192445.950000", "192445.953000", "192445.955000", "192445.958000", "192445.960000", "192445.963000", "192445.965000", "192445.968000", "192445.971000", "192445.973000", "192445.976000", "192445.978000", "192445.981000", "192445.983000", "192445.986000", "192445.988000", "192445.991000", "192445.993000", "192445.996000", "192446.000000", "192446.002000", "192446.005000", "192446.007000", "192525.936000", "192525.939000", "192525.942000", "192525.944000", "192525.947000", "192525.949000", "192525.952000", "192525.954000", "192525.957000", "192525.959000", "192525.962000", "192525.964000", "192525.967000", "192525.970000", "192525.972000", "192525.975000", "192525.977000", "192525.980000", "192525.982000", "192525.985000", "192525.987000", "192525.990000", "192525.992000", "192525.995000", "192525.997000", "192526.001000", "192526.004000", "192545.872000", "192545.875000", "192545.877000", "192545.880000", "192545.882000", "192545.885000", "192545.888000", "192545.890000", "192545.893000", "192545.895000", "192545.898000", "192545.900000", "192545.903000", "192609.134000", "192609.136000", "192609.139000", "192609.141000", "192609.144000", "192609.146000", "192609.149000", "192609.151000", "192609.154000", "192609.156000", "192609.159000", "192609.161000", "192609.164000", "192609.166000", "192609.169000", "192609.172000"],
      "InstanceNumber": [1, 2, 3, 4, 5, 6, 7, 8, 9, 10, 11, 12, 13, 14, 15, 16, 17, 18, 19, 20, 21, 22, 23, 24, 25, 26, 27, 28, 29, 30, 31, 32, 33, 34, 35, 36, 37, 38, 39, 40, 41, 42, 43, 44, 45, 46, 47, 48, 49, 50, 51, 52, 53, 54, 55, 56, 57, 58, 59, 60, 61, 62, 63, 64, 65, 66, 67, 68, 69, 70, 71, 72, 73, 74, 75, 76, 77, 78, 79, 80, 81, 82, 83, 84, 85, 86, 87, 88, 89, 90, 91, 92, 93, 94, 95, 96, 97, 98, 99, 100, 101, 102, 103, 104, 105, 106, 107, 108, 109, 110, 111, 112, 113, 114, 115, 116, 117, 118, 119, 120, 121, 122, 123, 124, 125, 126, 127, 128, 129, 130, 131, 132, 133, 134, 135, 136, 137, 138, 139, 140, 141, 142, 143, 144, 145, 146, 147, 148, 149, 150, 151, 152, 153, 154, 155, 156, 157, 158, 159, 160, 161, 162, 163, 164, 165, 166, 167, 168, 169, 170, 171, 172, 173, 174, 175, 176, 177, 178, 179, 180, 181, 182, 183, 184, 185, 186, 187, 188, 189, 190, 191, 192, 193, 194, 195, 196, 197, 198, 199, 200, 201, 202, 203, 204, 205, 206, 207, 208, 209, 210, 211, 212, 213, 214, 215, 216, 217, 218, 219, 220, 221, 222, 223, 224, 225, 226, 227, 228, 229, 230, 231, 232, 233, 234, 235, 236, 237, 238, 239, 240, 241, 242, 243, 244, 245, 246, 247, 248, 249, 250, 251, 252, 253, 254, 255, 256, 257, 258, 259, 260, 261, 262, 263, 264, 265, 266, 267, 268, 269, 270, 271, 272, 273, 274, 275, 276, 277, 278, 279, 280, 281, 282, 283, 284, 285, 286, 287, 288, 289, 290, 291, 292, 293, 294, 295, 296, 297, 298, 299, 300, 301, 302, 303, 304, 305, 306, 307, 308, 309, 310, 311, 312, 313, 314, 315, 316, 317, 318, 319, 320],
      "WindowCenter": [4796.0, 4796.0, 4798.0, 4796.0, 4796.0, 4796.0, 4796.0, 4798.0, 4798.0, 4800.0, 4800.0, 4800.0, 4796.0, 4798.0, 4796.0, 4798.0, 4800.0, 4800.0, 4800.0, 4798.0, 4796.0, 4800.0, 4796.0, 4798.0, 4796.0, 4798.0, 4804.0, 4798.0, 4796.0, 4800.0, 4794.0, 4800.0, 4798.0, 4800.0, 4798.0, 4798.0, 4800.0, 4800.0, 4798.0, 4798.0, 4798.0, 4798.0, 4796.0, 4800.0, 4800.0, 4802.0, 4798.0, 4800.0, 4798.0, 4802.0, 4798.0, 4800.0, 4802.0, 4796.0, 4798.0, 4796.0, 4796.0, 4798.0, 4796.0, 4798.0, 4796.0, 4796.0, 4800.0, 4800.0, 4798.0, 4796.0, 4796.0, 4796.0, 4798.0, 4796.0, 4796.0, 4798.0, 4798.0, 4794.0, 4800.0, 4798.0, 4798.0, 4802.0, 4800.0, 4798.0, 4796.0, 4800.0, 4798.0, 4802.0, 4798.0, 4796.0, 4798.0, 4796.0, 4802.0, 4826.0, 4802.0, 4794.0, 4794.0, 4796.0, 4798.0, 4802.0, 4800.0, 4800.0, 4796.0, 4802.0, 4802.0, 4798.0, 4794.0, 4798.0, 4800.0, 4798.0, 4800.0, 4802.0, 4804.0, 4800.0, 4802.0, 4796.0, 4798.0, 4800.0, 4798.0, 4800.0, 4800.0, 4800.0, 4798.0, 4800.0, 4798.0, 4800.0, 4800.0, 4800.0, 4798.0, 4802.0, 4800.0, 4800.0, 4800.0, 4796.0, 4800.0, 4798.0, 4826.0, 4798.0, 4802.0, 4802.0, 4800.0, 4798.0, 4802.0, 4798.0, 4800.0, 4798.0, 4800.0, 4800.0, 4798.0, 4800.0, 4802.0, 4802.0, 4800.0, 4802.0, 4800.0, 4802.0, 4804.0, 4804.0, 4802.0, 4802.0, 4800.0, 4802.0, 4800.0, 4802.0, 4802.0, 4804.0, 4802.0, 4802.0, 4800.0, 4804.0, 4804.0, 4804.0, 4798.0, 4800.0, 4802.0, 4802.0, 4804.0, 4798.0, 4798.0, 4798.0, 4800.0, 4796.0, 4800.0, 4796.0, 4798.0, 4798.0, 4800.0, 4798.0, 4798.0, 4800.0, 4796.0, 4802.0, 4798.0, 4800.0, 4798.0, 4794.0, 4796.0, 4800.0, 4802.0, 4802.0, 4802.0, 4800.0, 4800.0, 4802.0, 4800.0, 4804.0, 4800.0, 4800.0, 4804.0, 4800.0, 4804.0, 4804.0, 4806.0, 4800.0, 4802.0, 4800.0, 4804.0, 4800.0, 4804.0, 4802.0, 4804.0, 4804.0, 4802.0, 4806.0, 4800.0, 4802.0, 4806.0, 4804.0, 4802.0, 4804.0, 4806.0, 4804.0, 4800.0, 4802.0, 4802.0, 4804.0, 4800.0, 4804.0, 4804.0, 4802.0, 4802.0, 4798.0, 4802.0, 4806.0, 4802.0, 4800.0, 4826.0, 4802.0, 4800.0, 4802.0, 4832.0, 4828.0, 4828.0, 4800.0, 4794.0, 4792.0, 4798.0, 4804.0, 4800.0, 4804.0, 4804.0, 4804.0, 4806.0, 4798.0, 4798.0, 4798.0, 4796.0, 4798.0, 4800.0, 4802.0, 4800.0, 4800.0, 4804.0, 4802.0, 4802.0, 4798.0, 4802.0, 4800.0, 4796.0, 4802.0, 4798.0, 4802.0, 4798.0, 4802.0, 4800.0, 4800.0, 4802.0, 4800.0, 4800.0, 4800.0, 4802.0, 4798.0, 4800.0, 4798.0, 4800.0, 4798.0, 4802.0, 4800.0, 4802.0, 4800.0, 4800.0, 4800.0, 4798.0, 4800.0, 4802.0, 4800.0, 4798.0, 4802.0, 4802.0, 4796.0, 4802.0, 4800.0, 4802.0, 4802.0, 4798.0, 4798.0, 4800.0, 4802.0, 4798.0, 4800.0, 4802.0, 4798.0, 4798.0, 4804.0],
