{
  "AcquisitionMatrixPE": 104,
  "AcquisitionNumber": 1,
  "AcquisitionTime": "19:09:34.940000",
  "BandwidthPerPixelPhaseEncode": 17.17,
  "BaseResolution": 104,
  "BodyPartExamined": "BRAIN",
  "CoilCombinationMethod": "Sum of Squares",
  "ConsistencyInfo": "N4_VE11C_LATEST_20160120",
  "ConversionSoftware": "dcm2niix",
  "ConversionSoftwareVersion": "v1.0.20220505",
  "DerivedVendorReportedEchoSpacing": 0.000560011,
  "DeviceSerialNumber": "167006",
  "DwellTime": 2.1e-06,
  "EchoTime": 0.037,
  "EchoTrainLength": 104,
  "EffectiveEchoSpacing": 0.000560011,
  "FlipAngle": 52,
  "HeudiconvVersion": "0.5.3.post811+g6206e14",
  "ImageComments": "Unaliased MB4/PE3/LB",
  "ImageOrientationPatientDICOM": [0.999316, -0.0313383, 0.0196295, 0.036294, 0.932881, -0.358352],
  "ImageOrientationText": "Tra>Cor(-21.0)>Sag(0.4)",
  "ImageType": [
    "ORIGINAL",
    "PRIMARY",
    "M",
    "MB",
    "ND",
    "MOSAIC"
],
  "ImagingFrequency": 123.26,
  "InPlanePhaseEncodingDirectionDICOM": "COL",
  "InstitutionAddress": "Chemin Queen-Mary 4565,Montreal,District,CA,H3W 1W5",
  "InstitutionName": "IUGM",
  "InstitutionalDepartmentName": "Department",
  "MRAcquisitionType": "2D",
  "MagneticFieldStrength": 3,
  "Manufacturer": "Siemens",
  "ManufacturersModelName": "Prisma_fit",
  "MatrixCoilMode": "SENSE",
  "Modality": "MR",
  "MultibandAccelerationFactor": 4,
  "PartialFourier": 1,
  "PatientPosition": "HFS",
  "PercentPhaseFOV": 100,
  "PercentSampling": 100,
  "PhaseEncodingDirection": "j",
  "PhaseEncodingSteps": 104,
  "PhaseResolution": 1,
  "PixelBandwidth": 2290,
  "ProcedureStepDescription": "games^mario3",
  "ProtocolName": "func_task-mario3_run-01",
  "PulseSequenceDetails": "%CustomerSeq%\\cmrr_mbep2d_bold",
  "ReceiveCoilActiveElements": "HC1-7;NC1,2",
  "ReceiveCoilName": "HeadNeck_64",
  "ReconMatrixPE": 104,
  "RepetitionTime": 1.49,
  "SAR": 0.0830488,
  "ScanOptions": "FS",
  "ScanningSequence": "EP",
  "SequenceName": "epfid2d1_104",
  "SequenceVariant": "SK\\SS",
  "SeriesDescription": "func_task-mario3_run-01",
  "SeriesNumber": 10,
  "ShimSetting": [605, -7271, -8809, 436, 29, -353, -24, 33],
  "SliceThickness": 2,
  "SliceTiming": [0, 0.785, 0.0975, 0.8825, 0.1975, 0.98, 0.295, 1.0775, 0.3925, 1.1775, 0.49, 1.275, 0.5875, 1.3725, 0.6875, 0, 0.785, 0.0975, 0.8825, 0.1975, 0.98, 0.295, 1.0775, 0.3925, 1.1775, 0.49, 1.275, 0.5875, 1.3725, 0.6875, 0, 0.785, 0.0975, 0.8825, 0.1975, 0.98, 0.295, 1.0775, 0.3925, 1.1775, 0.49, 1.275, 0.5875, 1.3725, 0.6875, 0, 0.785, 0.0975, 0.8825, 0.1975, 0.98, 0.295, 1.0775, 0.3925, 1.1775, 0.49, 1.275, 0.5875, 1.3725, 0.6875],
  "SoftwareVersions": "syngo MR E11",
  "SpacingBetweenSlices": 2,
  "StationName": "MRC35049",
  "TaskName": "mario3",
  "TotalReadoutTime": 0.0576811,
  "TxRefAmp": 321.111,
  "WipMemBlock": "6fc7905e-7167-44ee-b436-d22815db1360||Sequence: R017 ve11c/master r/75a17815+; Jun 28 2022 16:32:11 by eja",
  "dcmmeta_affine": [
    [-1.9986320734024048, 0.07258794456720352, 0.014163627289235592, 100.1351547241211],
    [0.06267659366130829, 1.8657618761062622, -0.7176381349563599, -72.24271392822266],
    [0.039258915930986404, 0.716703474521637, 1.866760492324829, -58.66277313232422],
    [0.0, 0.0, 0.0, 1.0]
],
  "dcmmeta_reorient_transform": [
    [0.0, -1.0, 0.0, 103.0],
    [1.0, 0.0, 0.0, 0.0],
    [0.0, 0.0, 1.0, 0.0],
    [0.0, 0.0, 0.0, 1.0]
],
  "dcmmeta_shape": [104, 104, 60, 308],
  "dcmmeta_slice_dim": 2,
  "dcmmeta_version": 0.6,
  "global": {
    "const": {
      "AcquisitionMatrix": [104, 0, 0, 104],
      "AngioFlag": "N",
      "BitsAllocated": 16,
      "BitsStored": 16,
      "BodyPartExamined": "BRAIN",
      "Columns": 832,
      "EchoNumbers": 1,
      "EchoTime": 37.0,
      "EchoTrainLength": 104,
      "FlipAngle": 52.0,
      "HighBit": 15,
      "ImageOrientationPatient": [0.99931606384249, -0.0313382980311, 0.01962945803785, 0.03629397281602, 0.93288090907746, -0.3583517224963],
      "ImagePositionPatient": [-861.53581898137, -776.25377671614, 261.74748890978],
      "ImageType": [
        "ORIGINAL",
        "PRIMARY",
        "M",
        "MB",
        "ND",
        "MOSAIC"
],
      "ImagedNucleus": "1H",
      "ImagingFrequency": 123.260176,
      "InPlanePhaseEncodingDirection": "COL",
      "MRAcquisitionType": "2D",
      "MagneticFieldStrength": 3.0,
      "Manufacturer": "SIEMENS",
      "ManufacturerModelName": "Prisma_fit",
      "Modality": "MR",
      "NumberOfAverages": 1.0,
      "NumberOfPhaseEncodingSteps": 104,
      "PercentPhaseFieldOfView": 100.0,
      "PercentSampling": 100.0,
      "PerformedProcedureStepStartTime": "190617.761000",
      "PhotometricInterpretation": "MONOCHROME2",
      "PixelBandwidth": 2290.0,
      "PixelRepresentation": 0,
      "PixelSpacing": [2.0, 2.0],
      "ProtocolName": "func_task-mario3_run-01",
      "RepetitionTime": 1490.0,
      "Rows": 832,
      "SAR": 0.08304876729367,
      "SamplesPerPixel": 1,
      "ScanOptions": "FS",
      "ScanningSequence": "EP",
      "SequenceName": "epfid2d1_104",
      "SequenceVariant": [
        "SK",
        "SS"
],
      "SeriesDescription": "func_task-mario3_run-01",
      "SeriesNumber": 10,
      "SeriesTime": "191050.365000",
      "SliceLocation": -28.123475658949,
      "SliceThickness": 2.0,
      "SmallestImagePixelValue": 0,
      "SoftwareVersions": "syngo MR E11",
      "SpacingBetweenSlices": 1.9999999702571,
      "SpecificCharacterSet": "ISO_IR 100",
      "StudyID": "1",
      "StudyTime": "190617.684000",
      "TransmitCoilName": "Body",
      "VariableFlipAngleFlag": "N",
      "WindowCenterWidthExplanation": "Algo1",
      "dBdt": 0.0},
    "slices": {}
  },
  "time": {
    "samples": {
      "AcquisitionNumber": [1, 2, 3, 4, 5, 6, 7, 8, 9, 10, 11, 12, 13, 14, 15, 16, 17, 18, 19, 20, 21, 22, 23, 24, 25, 26, 27, 28, 29, 30, 31, 32, 33, 34, 35, 36, 37, 38, 39, 40, 41, 42, 43, 44, 45, 46, 47, 48, 49, 50, 51, 52, 53, 54, 55, 56, 57, 58, 59, 60, 61, 62, 63, 64, 65, 66, 67, 68, 69, 70, 71, 72, 73, 74, 75, 76, 77, 78, 79, 80, 81, 82, 83, 84, 85, 86, 87, 88, 89, 90, 91, 92, 93, 94, 95, 96, 97, 98, 99, 100, 101, 102, 103, 104, 105, 106, 107, 108, 109, 110, 111, 112, 113, 114, 115, 116, 117, 118, 119, 120, 121, 122, 123, 124, 125, 126, 127, 128, 129, 130, 131, 132, 133, 134, 135, 136, 137, 138, 139, 140, 141, 142, 143, 144, 145, 146, 147, 148, 149, 150, 151, 152, 153, 154, 155, 156, 157, 158, 159, 160, 161, 162, 163, 164, 165, 166, 167, 168, 169, 170, 171, 172, 173, 174, 175, 176, 177, 178, 179, 180, 181, 182, 183, 184, 185, 186, 187, 188, 189, 190, 191, 192, 193, 194, 195, 196, 197, 198, 199, 200, 201, 202, 203, 204, 205, 206, 207, 208, 209, 210, 211, 212, 213, 214, 215, 216, 217, 218, 219, 220, 221, 222, 223, 224, 225, 226, 227, 228, 229, 230, 231, 232, 233, 234, 235, 236, 237, 238, 239, 240, 241, 242, 243, 244, 245, 246, 247, 248, 249, 250, 251, 252, 253, 254, 255, 256, 257, 258, 259, 260, 261, 262, 263, 264, 265, 266, 267, 268, 269, 270, 271, 272, 273, 274, 275, 276, 277, 278, 279, 280, 281, 282, 283, 284, 285, 286, 287, 288, 289, 290, 291, 292, 293, 294, 295, 296, 297, 298, 299, 300, 301, 302, 303, 304, 305, 306, 307, 308],
      "AcquisitionTime": ["190934.940000", "190936.430000", "190937.920000", "190939.410000", "190940.900000", "190942.390000", "190943.880000", "190945.370000", "190946.860000", "190948.350000", "190949.840000", "190951.330000", "190952.820000", "190954.310000", "190955.800000", "190957.290000", "190958.780000", "191000.270000", "191001.760000", "191003.250000", "191004.740000", "191006.230000", "191007.720000", "191009.210000", "191010.700000", "191012.190000", "191013.680000", "191015.170000", "191016.660000", "191018.150000", "191019.640000", "191021.130000", "191022.620000", "191024.110000", "191025.600000", "191027.090000", "191028.580000", "191030.070000", "191031.560000", "191033.050000", "191034.540000", "191036.030000", "191037.520000", "191039.010000", "191040.500000", "191041.990000", "191043.480000", "191044.970000", "191046.460000", "191047.950000", "191049.440000", "191050.930000", "191052.420000", "191053.910000", "191055.400000", "191056.890000", "191058.380000", "191059.870000", "191101.360000", "191102.850000", "191104.340000", "191105.830000", "191107.320000", "191108.810000", "191110.300000", "191111.790000", "191113.280000", "191114.770000", "191116.260000", "191117.750000", "191119.240000", "191120.730000", "191122.220000", "191123.710000", "191125.200000", "191126.690000", "191128.180000", "191129.670000", "191131.160000", "191132.650000", "191134.140000", "191135.630000", "191137.120000", "191138.610000", "191140.100000", "191141.590000", "191143.080000", "191144.570000", "191146.060000", "191147.550000", "191149.040000", "191150.530000", "191152.020000", "191153.510000", "191155.000000", "191156.490000", "191157.980000", "191159.470000", "191200.960000", "191202.450000", "191203.940000", "191205.430000", "191206.920000", "191208.410000", "191209.900000", "191211.390000", "191212.880000", "191214.370000", "191215.860000", "191217.350000", "191218.840000", "191220.330000", "191221.820000", "191223.310000", "191224.800000", "191226.290000", "191227.780000", "191229.270000", "191230.760000", "191232.250000", "191233.740000", "191235.230000", "191236.720000", "191238.210000", "191239.700000", "191241.190000", "191242.680000", "191244.170000", "191245.660000", "191247.150000", "191248.640000", "191250.130000", "191251.620000", "191253.110000", "191254.600000", "191256.090000", "191257.580000", "191259.070000", "191300.560000", "191302.050000", "191303.540000", "191305.030000", "191306.520000", "191308.010000", "191309.500000", "191310.990000", "191312.480000", "191313.970000", "191315.460000", "191316.950000", "191318.440000", "191319.930000", "191321.420000", "191322.910000", "191324.400000", "191325.890000", "191327.380000", "191328.870000", "191330.360000", "191331.850000", "191333.340000", "191334.830000", "191336.320000", "191337.810000", "191339.300000", "191340.790000", "191342.280000", "191343.770000", "191345.260000", "191346.750000", "191348.240000", "191349.730000", "191351.220000", "191352.710000", "191354.200000", "191355.690000", "191357.180000", "191358.670000", "191400.160000", "191401.650000", "191403.140000", "191404.630000", "191406.120000", "191407.610000", "191409.100000", "191410.590000", "191412.080000", "191413.570000", "191415.060000", "191416.550000", "191418.040000", "191419.530000", "191421.020000", "191422.510000", "191424.000000", "191425.490000", "191426.980000", "191428.470000", "191429.960000", "191431.450000", "191432.940000", "191434.430000", "191435.920000", "191437.410000", "191438.900000", "191440.390000", "191441.880000", "191443.370000", "191444.860000", "191446.350000", "191447.840000", "191449.330000", "191450.820000", "191452.310000", "191453.800000", "191455.290000", "191456.780000", "191458.270000", "191459.760000", "191501.250000", "191502.740000", "191504.230000", "191505.720000", "191507.210000", "191508.700000", "191510.190000", "191511.680000", "191513.170000", "191514.660000", "191516.150000", "191517.640000", "191519.130000", "191520.620000", "191522.110000", "191523.600000", "191525.090000", "191526.580000", "191528.070000", "191529.560000", "191531.050000", "191532.540000", "191534.030000", "191535.520000", "191537.010000", "191538.500000", "191539.990000", "191541.480000", "191542.970000", "191544.460000", "191545.950000", "191547.440000", "191548.930000", "191550.420000", "191551.910000", "191553.400000", "191554.890000", "191556.380000", "191557.870000", "191559.360000", "191600.850000", "191602.340000", "191603.830000", "191605.320000", "191606.810000", "191608.300000", "191609.790000", "191611.280000", "191612.770000", "191614.260000", "191615.750000", "191617.240000", "191618.730000", "191620.220000", "191621.710000", "191623.200000", "191624.690000", "191626.180000", "191627.670000", "191629.160000", "191630.650000", "191632.140000", "191633.630000", "191635.120000", "191636.610000", "191638.100000", "191639.590000", "191641.080000", "191642.570000", "191644.060000", "191645.550000", "191647.040000", "191648.530000", "191650.020000", "191651.510000", "191653.000000", "191654.490000", "191655.980000", "191657.470000", "191658.960000", "191700.450000", "191701.940000", "191703.430000", "191704.920000", "191706.410000", "191707.900000", "191709.390000", "191710.880000", "191712.370000"],
      "ContentTime": ["191050.368000", "191050.372000", "191050.375000", "191050.378000", "191050.382000", "191050.385000", "191050.389000", "191050.392000", "191050.400000", "191050.403000", "191050.406000", "191050.410000", "191050.413000", "191050.417000", "191050.420000", "191050.423000", "191050.427000", "191050.430000", "191050.433000", "191050.437000", "191050.440000", "191050.443000", "191050.447000", "191050.450000", "191050.453000", "191050.457000", "191050.460000", "191110.335000", "191110.339000", "191110.342000", "191110.346000", "191110.349000", "191110.352000", "191110.356000", "191110.359000", "191110.362000", "191110.366000", "191110.369000", "191110.372000", "191110.385000", "191110.388000", "191110.391000", "191110.394000", "191110.402000", "191110.405000", "191110.409000", "191110.412000", "191130.335000", "191130.339000", "191130.342000", "191130.345000", "191130.349000", "191130.352000", "191130.355000", "191130.359000", "191130.362000", "191130.366000", "191130.369000", "191130.372000", "191130.376000", "191130.379000", "191130.382000", "191130.386000", "191130.389000", "191130.392000", "191130.396000", "191130.399000", "191150.335000", "191150.339000", "191150.342000", "191150.346000", "191150.349000", "191150.353000", "191150.356000", "191150.360000", "191150.363000", "191150.366000", "191150.369000", "191150.373000", "191150.376000", "191150.380000", "191150.383000", "191150.386000", "191150.390000", "191150.393000", "191150.396000", "191150.400000", "191230.335000", "191230.339000", "191230.342000", "191230.363000", "191230.366000", "191230.370000", "191230.373000", "191230.376000", "191230.380000", "191230.383000", "191230.386000", "191230.390000", "191230.393000", "191230.396000", "191230.400000", "191230.403000", "191230.406000", "191230.410000", "191230.413000", "191230.417000", "191230.420000", "191230.423000", "191230.427000", "191230.446000", "191230.449000", "191230.452000", "191230.456000", "191230.459000", "191230.462000", "191230.466000", "191310.335000", "191310.339000", "191310.343000", "191310.346000", "191310.350000", "191310.354000", "191310.357000", "191310.360000", "191310.364000", "191310.367000", "191310.371000", "191310.374000", "191310.377000", "191310.381000", "191310.384000", "191310.387000", "191310.391000", "191310.394000", "191310.398000", "191310.401000", "191310.405000", "191310.408000", "191310.411000", "191310.415000", "191310.418000", "191310.421000", "191350.335000", "191350.339000", "191350.342000", "191350.346000", "191350.349000", "191350.352000", "191350.356000", "191350.359000", "191350.362000", "191350.366000", "191350.369000", "191350.372000", "191350.376000", "191350.379000", "191350.383000", "191350.386000", "191350.390000", "191350.393000", "191350.396000", "191350.400000", "191350.403000", "191350.406000", "191350.410000", "191350.413000", "191350.416000", "191350.420000", "191350.423000", "191430.335000", "191430.339000", "191430.342000", "191430.346000", "191430.349000", "191430.352000", "191430.356000", "191430.359000", "191430.362000", "191430.366000", "191430.369000", "191430.373000", "191430.376000", "191430.380000", "191430.383000", "191430.386000", "191430.390000", "191430.393000", "191430.397000", "191430.400000", "191430.403000", "191430.407000", "191430.410000", "191430.413000", "191430.417000", "191430.420000", "191430.423000", "191510.335000", "191510.339000", "191510.342000", "191510.346000", "191510.361000", "191510.364000", "191510.368000", "191510.371000", "191510.375000", "191510.378000", "191510.381000", "191510.385000", "191510.388000", "191510.391000", "191510.395000", "191510.398000", "191510.402000", "191510.405000", "191510.408000", "191510.412000", "191510.415000", "191510.418000", "191510.422000", "191510.425000", "191510.428000", "191510.432000", "191510.435000", "191550.335000", "191550.339000", "191550.342000", "191550.346000", "191550.349000", "191550.353000", "191550.356000", "191550.360000", "191550.363000", "191550.366000", "191550.370000", "191550.373000", "191550.377000", "191550.380000", "191550.383000", "191550.387000", "191550.390000", "191550.393000", "191550.397000", "191550.400000", "191550.403000", "191550.407000", "191550.410000", "191550.413000", "191550.417000", "191550.420000", "191550.423000", "191630.336000", "191630.340000", "191630.343000", "191630.347000", "191630.350000", "191630.354000", "191630.357000", "191630.360000", "191630.364000", "191630.367000", "191630.370000", "191630.374000", "191630.377000", "191630.381000", "191630.384000", "191630.387000", "191630.391000", "191630.394000", "191630.398000", "191630.401000", "191630.404000", "191630.408000", "191630.411000", "191630.414000", "191630.418000", "191630.422000", "191630.425000", "191710.335000", "191710.339000", "191710.342000", "191710.346000", "191710.349000", "191710.353000", "191710.358000", "191710.361000", "191710.369000", "191710.374000", "191710.377000", "191710.381000", "191710.384000", "191710.388000", "191710.391000", "191710.395000", "191710.398000", "191710.401000", "191710.405000", "191710.408000", "191710.411000", "191710.415000", "191710.418000", "191710.422000", "191710.425000", "191710.428000", "191715.458000", "191715.462000", "191715.465000", "191715.469000"],
      "InstanceCreationTime": ["191050.368000", "191050.372000", "191050.375000", "191050.378000", "191050.382000", "191050.385000", "191050.389000", "191050.392000", "191050.400000", "191050.403000", "191050.406000", "191050.410000", "191050.413000", "191050.417000", "191050.420000", "191050.423000", "191050.427000", "191050.430000", "191050.433000", "191050.437000", "191050.440000", "191050.443000", "191050.447000", "191050.450000", "191050.453000", "191050.457000", "191050.460000", "191110.335000", "191110.339000", "191110.342000", "191110.346000", "191110.349000", "191110.352000", "191110.356000", "191110.359000", "191110.362000", "191110.366000", "191110.369000", "191110.372000", "191110.385000", "191110.388000", "191110.391000", "191110.394000", "191110.402000", "191110.405000", "191110.409000", "191110.412000", "191130.335000", "191130.339000", "191130.342000", "191130.345000", "191130.349000", "191130.352000", "191130.355000", "191130.359000", "191130.362000", "191130.366000", "191130.369000", "191130.372000", "191130.376000", "191130.379000", "191130.382000", "191130.386000", "191130.389000", "191130.392000", "191130.396000", "191130.399000", "191150.335000", "191150.339000", "191150.342000", "191150.346000", "191150.349000", "191150.353000", "191150.356000", "191150.360000", "191150.363000", "191150.366000", "191150.369000", "191150.373000", "191150.376000", "191150.380000", "191150.383000", "191150.386000", "191150.390000", "191150.393000", "191150.396000", "191150.400000", "191230.335000", "191230.339000", "191230.342000", "191230.363000", "191230.366000", "191230.370000", "191230.373000", "191230.376000", "191230.380000", "191230.383000", "191230.386000", "191230.390000", "191230.393000", "191230.396000", "191230.400000", "191230.403000", "191230.406000", "191230.410000", "191230.413000", "191230.417000", "191230.420000", "191230.423000", "191230.427000", "191230.446000", "191230.449000", "191230.452000", "191230.456000", "191230.459000", "191230.462000", "191230.466000", "191310.335000", "191310.339000", "191310.343000", "191310.346000", "191310.350000", "191310.354000", "191310.357000", "191310.360000", "191310.364000", "191310.367000", "191310.371000", "191310.374000", "191310.377000", "191310.381000", "191310.384000", "191310.387000", "191310.391000", "191310.394000", "191310.398000", "191310.401000", "191310.405000", "191310.408000", "191310.411000", "191310.415000", "191310.418000", "191310.421000", "191350.335000", "191350.339000", "191350.342000", "191350.346000", "191350.349000", "191350.352000", "191350.356000", "191350.359000", "191350.362000", "191350.366000", "191350.369000", "191350.372000", "191350.376000", "191350.379000", "191350.383000", "191350.386000", "191350.390000", "191350.393000", "191350.396000", "191350.400000", "191350.403000", "191350.406000", "191350.410000", "191350.413000", "191350.416000", "191350.420000", "191350.423000", "191430.335000", "191430.339000", "191430.342000", "191430.346000", "191430.349000", "191430.352000", "191430.356000", "191430.359000", "191430.362000", "191430.366000", "191430.369000", "191430.373000", "191430.376000", "191430.380000", "191430.383000", "191430.386000", "191430.390000", "191430.393000", "191430.397000", "191430.400000", "191430.403000", "191430.407000", "191430.410000", "191430.413000", "191430.417000", "191430.420000", "191430.423000", "191510.335000", "191510.339000", "191510.342000", "191510.346000", "191510.361000", "191510.364000", "191510.368000", "191510.371000", "191510.375000", "191510.378000", "191510.381000", "191510.385000", "191510.388000", "191510.391000", "191510.395000", "191510.398000", "191510.402000", "191510.405000", "191510.408000", "191510.412000", "191510.415000", "191510.418000", "191510.422000", "191510.425000", "191510.428000", "191510.432000", "191510.435000", "191550.335000", "191550.339000", "191550.342000", "191550.346000", "191550.349000", "191550.353000", "191550.356000", "191550.360000", "191550.363000", "191550.366000", "191550.370000", "191550.373000", "191550.377000", "191550.380000", "191550.383000", "191550.387000", "191550.390000", "191550.393000", "191550.397000", "191550.400000", "191550.403000", "191550.407000", "191550.410000", "191550.413000", "191550.417000", "191550.420000", "191550.423000", "191630.336000", "191630.340000", "191630.343000", "191630.347000", "191630.350000", "191630.354000", "191630.357000", "191630.360000", "191630.364000", "191630.367000", "191630.370000", "191630.374000", "191630.377000", "191630.381000", "191630.384000", "191630.387000", "191630.391000", "191630.394000", "191630.398000", "191630.401000", "191630.404000", "191630.408000", "191630.411000", "191630.414000", "191630.418000", "191630.422000", "191630.425000", "191710.335000", "191710.339000", "191710.342000", "191710.346000", "191710.349000", "191710.353000", "191710.358000", "191710.361000", "191710.369000", "191710.374000", "191710.377000", "191710.381000", "191710.384000", "191710.388000", "191710.391000", "191710.395000", "191710.398000", "191710.401000", "191710.405000", "191710.408000", "191710.411000", "191710.415000", "191710.418000", "191710.422000", "191710.425000", "191710.428000", "191715.458000", "191715.462000", "191715.465000", "191715.469000"],
      "InstanceNumber": [1, 2, 3, 4, 5, 6, 7, 8, 9, 10, 11, 12, 13, 14, 15, 16, 17, 18, 19, 20, 21, 22, 23, 24, 25, 26, 27, 28, 29, 30, 31, 32, 33, 34, 35, 36, 37, 38, 39, 40, 41, 42, 43, 44, 45, 46, 47, 48, 49, 50, 51, 52, 53, 54, 55, 56, 57, 58, 59, 60, 61, 62, 63, 64, 65, 66, 67, 68, 69, 70, 71, 72, 73, 74, 75, 76, 77, 78, 79, 80, 81, 82, 83, 84, 85, 86, 87, 88, 89, 90, 91, 92, 93, 94, 95, 96, 97, 98, 99, 100, 101, 102, 103, 104, 105, 106, 107, 108, 109, 110, 111, 112, 113, 114, 115, 116, 117, 118, 119, 120, 121, 122, 123, 124, 125, 126, 127, 128, 129, 130, 131, 132, 133, 134, 135, 136, 137, 138, 139, 140, 141, 142, 143, 144, 145, 146, 147, 148, 149, 150, 151, 152, 153, 154, 155, 156, 157, 158, 159, 160, 161, 162, 163, 164, 165, 166, 167, 168, 169, 170, 171, 172, 173, 174, 175, 176, 177, 178, 179, 180, 181, 182, 183, 184, 185, 186, 187, 188, 189, 190, 191, 192, 193, 194, 195, 196, 197, 198, 199, 200, 201, 202, 203, 204, 205, 206, 207, 208, 209, 210, 211, 212, 213, 214, 215, 216, 217, 218, 219, 220, 221, 222, 223, 224, 225, 226, 227, 228, 229, 230, 231, 232, 233, 234, 235, 236, 237, 238, 239, 240, 241, 242, 243, 244, 245, 246, 247, 248, 249, 250, 251, 252, 253, 254, 255, 256, 257, 258, 259, 260, 261, 262, 263, 264, 265, 266, 267, 268, 269, 270, 271, 272, 273, 274, 275, 276, 277, 278, 279, 280, 281, 282, 283, 284, 285, 286, 287, 288, 289, 290, 291, 292, 293, 294, 295, 296, 297, 298, 299, 300, 301, 302, 303, 304, 305, 306, 307, 308],
      "LargestImagePixelValue": [57145, 54800, 54321, 53672, 53470, 52927, 53472, 53224, 52832, 52864, 53452, 52524, 53270, 52327, 53458, 52511, 52928, 52768, 52591, 52640, 52813, 52356, 52487, 52236, 52488, 51732, 52589, 52894, 52026, 52201, 52539, 52184, 51878, 51488, 52079, 51387, 51676, 51421, 52157, 51788, 52029, 52259, 52079, 52121, 52215, 52050, 51497, 52110, 51157, 51894, 51338, 51870, 51517, 51362, 51518, 51496, 51668, 51974, 51505, 51764, 51618, 52200, 51757, 51964, 52366, 52055, 52263, 52646, 52609, 52025, 50970, 53317, 51088, 50484, 52500, 52082, 52118, 52541, 52011, 51581, 52115, 51791, 52323, 51337, 51335, 51155, 51380, 51104, 51766, 51723, 51648, 51952, 51754, 51560, 51315, 51626, 51559, 51789, 51651, 51567, 51777, 51706, 51226, 51898, 51740, 52100, 52267, 52315, 53539, 52937, 53343, 52941, 53230, 53325, 53781, 53760, 53792, 53920, 54018, 54693, 54509, 53896, 55155, 53812, 54406, 54760, 54364, 54418, 54418, 54482, 54037, 54379, 54469, 53965, 52547, 52247, 53001, 51976, 51945, 52610, 52782, 53928, 53653, 53315, 53302, 52279, 52877, 51966, 51979, 52022, 52024, 53039, 52165, 52413, 52669, 52141, 52861, 52786, 53302, 52673, 52932, 52755, 52584, 53011, 51847, 52927, 52140, 52230, 53108, 52182, 53351, 52854, 53430, 52095, 53610, 52349, 53134, 53282, 52604, 52689, 53249, 53645, 53568, 53153, 53517, 53344, 53255, 52897, 53764, 53390, 53482, 53268, 53211, 53190, 53474, 53558, 53317, 53742, 53289, 53965, 53829, 53674, 52959, 52775, 53587, 53793, 53132, 52432, 52492, 52905, 52849, 51432, 52568, 53096, 53476, 54247, 53042, 53015, 53412, 53044, 53123, 52554, 53326, 52147, 53388, 52333, 53679, 53018, 52689, 53283, 52934, 52745, 52783, 52428, 52659, 52280, 52883, 52636, 53213, 52619, 53511, 54233, 53713, 52786, 52485, 53072, 51886, 52780, 52713, 52774, 52851, 53285, 52441, 52509, 52564, 52023, 53015, 52303, 52515, 52387, 52386, 52204, 51861, 53182, 52108, 53277, 51742, 53252, 51926, 52475, 51977, 52413, 52509, 51831, 53003, 52647, 53281, 54206, 54950, 54576, 54801, 52557, 52372, 52182, 53736, 51728, 52302, 51933, 52532, 52764, 51832, 53416, 52788, 52505, 53073, 52254, 51747, 52372, 51814, 52297, 51979, 51969, 52465, 51557, 51602, 52255, 51148, 52677],
      "WindowCenter": [10544.0, 10482.0, 10458.0, 10461.0, 10461.0, 10456.0, 10452.0, 10437.0, 10442.0, 10459.0, 10480.0, 10487.0, 10494.0, 10488.0, 10478.0, 10459.0, 10452.0, 10453.0, 10444.0, 10444.0, 10443.0, 10428.0, 10435.0, 10437.0, 10436.0, 10432.0, 10436.0, 10441.0, 10434.0, 10439.0, 10440.0, 10437.0, 10435.0, 10432.0, 10435.0, 10425.0, 10424.0, 10423.0, 10428.0, 10427.0, 10435.0, 10427.0, 10428.0, 10420.0, 10426.0, 10427.0, 10423.0, 10435.0, 10431.0, 10438.0, 10426.0, 10439.0, 10431.0, 10438.0, 10425.0, 10424.0, 10419.0, 10421.0, 10414.0, 10420.0, 10421.0, 10425.0, 10420.0, 10421.0, 10431.0, 10434.0, 10437.0, 10441.0, 10437.0, 10436.0, 10435.0, 10472.0, 10443.0, 10430.0, 10443.0, 10423.0, 10405.0, 10394.0, 10392.0, 10397.0, 10403.0, 10411.0, 10427.0, 10407.0, 10425.0, 10433.0, 10449.0, 10450.0, 10451.0, 10456.0, 10466.0, 10467.0, 10463.0, 10452.0, 10438.0, 10427.0, 10418.0, 10415.0, 10406.0, 10419.0, 10423.0, 10431.0, 10432.0, 10440.0, 10440.0, 10447.0, 10446.0, 10446.0, 10464.0, 10450.0, 10465.0, 10459.0, 10459.0, 10465.0, 10462.0, 10452.0, 10452.0, 10450.0, 10443.0, 10449.0, 10454.0, 10452.0, 10469.0, 10451.0, 10463.0, 10464.0, 10470.0, 10474.0, 10474.0, 10459.0, 10450.0, 10448.0, 10455.0, 10454.0, 10447.0, 10471.0, 10475.0, 10451.0, 10441.0, 10437.0, 10421.0, 10419.0, 10411.0, 10409.0, 10412.0, 10422.0, 10431.0, 10444.0, 10453.0, 10463.0, 10455.0, 10467.0, 10455.0, 10453.0, 10459.0, 10438.0, 10439.0, 10433.0, 10445.0, 10446.0, 10455.0, 10457.0, 10452.0, 10460.0, 10436.0, 10449.0, 10451.0, 10444.0, 10451.0, 10427.0, 10436.0, 10423.0, 10435.0, 10425.0, 10436.0, 10424.0, 10436.0, 10444.0, 10447.0, 10461.0, 10468.0, 10470.0, 10462.0, 10463.0, 10468.0, 10469.0, 10463.0, 10456.0, 10461.0, 10460.0, 10461.0, 10454.0, 10454.0, 10438.0, 10438.0, 10444.0, 10437.0, 10442.0, 10440.0, 10446.0, 10435.0, 10440.0, 10427.0, 10426.0, 10432.0, 10440.0, 10438.0, 10453.0, 10467.0, 10467.0, 10460.0, 10436.0, 10432.0, 10422.0, 10423.0, 10418.0, 10397.0, 10405.0, 10410.0, 10414.0, 10422.0, 10419.0, 10423.0, 10413.0, 10428.0, 10423.0, 10428.0, 10422.0, 10416.0, 10429.0, 10423.0, 10441.0, 10449.0, 10445.0, 10443.0, 10429.0, 10433.0, 10427.0, 10431.0, 10432.0, 10442.0, 10460.0, 10445.0, 10455.0, 10449.0, 10448.0, 10436.0, 10448.0, 10447.0, 10441.0, 10432.0, 10427.0, 10424.0, 10426.0, 10433.0, 10441.0, 10453.0, 10436.0, 10450.0, 10456.0, 10463.0, 10474.0, 10463.0, 10472.0, 10448.0, 10449.0, 10443.0, 10455.0, 10451.0, 10450.0, 10444.0, 10442.0, 10436.0, 10425.0, 10422.0, 10421.0, 10436.0, 10440.0, 10456.0, 10467.0, 10464.0, 10452.0, 10468.0, 10480.0, 10476.0, 10451.0, 10433.0, 10424.0, 10413.0, 10410.0, 10397.0, 10411.0, 10409.0, 10418.0, 10439.0, 10446.0, 10454.0, 10462.0, 10450.0, 10449.0, 10450.0, 10450.0, 10453.0, 10442.0, 10441.0, 10439.0, 10436.0, 10460.0],
