{
  "AcquisitionMatrixPE": 104,
  "AcquisitionNumber": 1,
  "AcquisitionTime": "19:29:20.672500",
  "BandwidthPerPixelPhaseEncode": 17.17,
  "BaseResolution": 104,
  "BodyPartExamined": "BRAIN",
  "CoilCombinationMethod": "Sum of Squares",
  "ConsistencyInfo": "N4_VE11C_LATEST_20160120",
  "ConversionSoftware": "dcm2niix",
  "ConversionSoftwareVersion": "v1.0.20220505",
  "DerivedVendorReportedEchoSpacing": 0.000560011,
  "DeviceSerialNumber": "167006",
  "DwellTime": 2.1e-06,
  "EchoTime": 0.037,
  "EchoTrainLength": 104,
  "EffectiveEchoSpacing": 0.000560011,
  "FlipAngle": 52,
  "HeudiconvVersion": "0.5.3.post811+g6206e14",
  "ImageComments": "Unaliased MB4/PE3/LB",
  "ImageOrientationPatientDICOM": [0.999316, -0.0313383, 0.0196295, 0.036294, 0.932881, -0.358352],
  "ImageOrientationText": "Tra>Cor(-21.0)>Sag(0.4)",
  "ImageType": [
    "ORIGINAL",
    "PRIMARY",
    "M",
    "MB",
    "ND",
    "MOSAIC"
],
  "ImagingFrequency": 123.26,
  "InPlanePhaseEncodingDirectionDICOM": "COL",
  "InstitutionAddress": "Chemin Queen-Mary 4565,Montreal,District,CA,H3W 1W5",
  "InstitutionName": "IUGM",
  "InstitutionalDepartmentName": "Department",
  "MRAcquisitionType": "2D",
  "MagneticFieldStrength": 3,
  "Manufacturer": "Siemens",
  "ManufacturersModelName": "Prisma_fit",
  "MatrixCoilMode": "SENSE",
  "Modality": "MR",
  "MultibandAccelerationFactor": 4,
  "PartialFourier": 1,
  "PatientPosition": "HFS",
  "PercentPhaseFOV": 100,
  "PercentSampling": 100,
  "PhaseEncodingDirection": "j",
  "PhaseEncodingSteps": 104,
  "PhaseResolution": 1,
  "PixelBandwidth": 2290,
  "ProcedureStepDescription": "games^mario3",
  "ProtocolName": "func_task-mario3_run-03",
  "PulseSequenceDetails": "%CustomerSeq%\\cmrr_mbep2d_bold",
  "ReceiveCoilActiveElements": "HC1-7;NC1,2",
  "ReceiveCoilName": "HeadNeck_64",
  "ReconMatrixPE": 104,
  "RepetitionTime": 1.49,
  "SAR": 0.0830488,
  "ScanOptions": "FS",
  "ScanningSequence": "EP",
  "SequenceName": "epfid2d1_104",
  "SequenceVariant": "SK\\SS",
  "SeriesDescription": "func_task-mario3_run-03",
  "SeriesNumber": 16,
  "ShimSetting": [605, -7271, -8809, 436, 29, -353, -24, 33],
  "SliceThickness": 2,
  "SliceTiming": [0, 0.7825, 0.0975, 0.8825, 0.195, 0.98, 0.2925, 1.0775, 0.3925, 1.175, 0.49, 1.2725, 0.5875, 1.3725, 0.685, 0, 0.7825, 0.0975, 0.8825, 0.195, 0.98, 0.2925, 1.0775, 0.3925, 1.175, 0.49, 1.2725, 0.5875, 1.3725, 0.685, 0, 0.7825, 0.0975, 0.8825, 0.195, 0.98, 0.2925, 1.0775, 0.3925, 1.175, 0.49, 1.2725, 0.5875, 1.3725, 0.685, 0, 0.7825, 0.0975, 0.8825, 0.195, 0.98, 0.2925, 1.0775, 0.3925, 1.175, 0.49, 1.2725, 0.5875, 1.3725, 0.685],
  "SoftwareVersions": "syngo MR E11",
  "SpacingBetweenSlices": 2,
  "StationName": "MRC35049",
  "TaskName": "mario3",
  "TotalReadoutTime": 0.0576811,
  "TxRefAmp": 321.111,
  "WipMemBlock": "5b196370-8903-44d7-9cd9-6b7ef8c60a4f||Sequence: R017 ve11c/master r/75a17815+; Jun 28 2022 16:32:11 by eja",
  "dcmmeta_affine": [
    [-1.9986320734024048, 0.07258794456720352, 0.014163627289235592, 100.1351547241211],
    [0.06267659366130829, 1.8657618761062622, -0.7176381349563599, -72.24271392822266],
    [0.039258915930986404, 0.716703474521637, 1.866760492324829, -58.66277313232422],
    [0.0, 0.0, 0.0, 1.0]
],
  "dcmmeta_reorient_transform": [
    [0.0, -1.0, 0.0, 103.0],
    [1.0, 0.0, 0.0, 0.0],
    [0.0, 0.0, 1.0, 0.0],
    [0.0, 0.0, 0.0, 1.0]
],
  "dcmmeta_shape": [104, 104, 60, 585],
  "dcmmeta_slice_dim": 2,
  "dcmmeta_version": 0.6,
  "global": {
    "const": {
      "AcquisitionMatrix": [104, 0, 0, 104],
      "AngioFlag": "N",
      "BitsAllocated": 16,
      "BitsStored": 16,
      "BodyPartExamined": "BRAIN",
      "Columns": 832,
      "EchoNumbers": 1,
      "EchoTime": 37.0,
      "EchoTrainLength": 104,
      "FlipAngle": 52.0,
      "HighBit": 15,
      "ImageOrientationPatient": [0.99931606384249, -0.0313382980311, 0.01962945803785, 0.03629397281602, 0.93288090907746, -0.3583517224963],
      "ImagePositionPatient": [-861.53581898137, -776.25377671614, 261.74748890978],
      "ImageType": [
        "ORIGINAL",
        "PRIMARY",
        "M",
        "MB",
        "ND",
        "MOSAIC"
],
      "ImagedNucleus": "1H",
      "ImagingFrequency": 123.260179,
      "InPlanePhaseEncodingDirection": "COL",
      "MRAcquisitionType": "2D",
      "MagneticFieldStrength": 3.0,
      "Manufacturer": "SIEMENS",
      "ManufacturerModelName": "Prisma_fit",
      "Modality": "MR",
      "NumberOfAverages": 1.0,
      "NumberOfPhaseEncodingSteps": 104,
      "PercentPhaseFieldOfView": 100.0,
      "PercentSampling": 100.0,
      "PerformedProcedureStepStartTime": "190617.761000",
      "PhotometricInterpretation": "MONOCHROME2",
      "PixelBandwidth": 2290.0,
      "PixelRepresentation": 0,
      "PixelSpacing": [2.0, 2.0],
      "ProtocolName": "func_task-mario3_run-03",
      "RepetitionTime": 1490.0,
      "Rows": 832,
      "SAR": 0.08304876729367,
      "SamplesPerPixel": 1,
      "ScanOptions": "FS",
      "ScanningSequence": "EP",
      "SequenceName": "epfid2d1_104",
      "SequenceVariant": [
        "SK",
        "SS"
],
      "SeriesDescription": "func_task-mario3_run-03",
      "SeriesNumber": 16,
      "SeriesTime": "193048.580000",
      "SliceLocation": -28.123475658949,
      "SliceThickness": 2.0,
      "SmallestImagePixelValue": 0,
      "SoftwareVersions": "syngo MR E11",
      "SpacingBetweenSlices": 1.9999999702571,
      "SpecificCharacterSet": "ISO_IR 100",
      "StudyID": "1",
      "StudyTime": "190617.684000",
      "TransmitCoilName": "Body",
      "VariableFlipAngleFlag": "N",
      "WindowCenterWidthExplanation": "Algo1",
      "dBdt": 0.0},
    "slices": {}
  },
  "time": {
    "samples": {
      "AcquisitionNumber": [1, 2, 3, 4, 5, 6, 7, 8, 9, 10, 11, 12, 13, 14, 15, 16, 17, 18, 19, 20, 21, 22, 23, 24, 25, 26, 27, 28, 29, 30, 31, 32, 33, 34, 35, 36, 37, 38, 39, 40, 41, 42, 43, 44, 45, 46, 47, 48, 49, 50, 51, 52, 53, 54, 55, 56, 57, 58, 59, 60, 61, 62, 63, 64, 65, 66, 67, 68, 69, 70, 71, 72, 73, 74, 75, 76, 77, 78, 79, 80, 81, 82, 83, 84, 85, 86, 87, 88, 89, 90, 91, 92, 93, 94, 95, 96, 97, 98, 99, 100, 101, 102, 103, 104, 105, 106, 107, 108, 109, 110, 111, 112, 113, 114, 115, 116, 117, 118, 119, 120, 121, 122, 123, 124, 125, 126, 127, 128, 129, 130, 131, 132, 133, 134, 135, 136, 137, 138, 139, 140, 141, 142, 143, 144, 145, 146, 147, 148, 149, 150, 151, 152, 153, 154, 155, 156, 157, 158, 159, 160, 161, 162, 163, 164, 165, 166, 167, 168, 169, 170, 171, 172, 173, 174, 175, 176, 177, 178, 179, 180, 181, 182, 183, 184, 185, 186, 187, 188, 189, 190, 191, 192, 193, 194, 195, 196, 197, 198, 199, 200, 201, 202, 203, 204, 205, 206, 207, 208, 209, 210, 211, 212, 213, 214, 215, 216, 217, 218, 219, 220, 221, 222, 223, 224, 225, 226, 227, 228, 229, 230, 231, 232, 233, 234, 235, 236, 237, 238, 239, 240, 241, 242, 243, 244, 245, 246, 247, 248, 249, 250, 251, 252, 253, 254, 255, 256, 257, 258, 259, 260, 261, 262, 263, 264, 265, 266, 267, 268, 269, 270, 271, 272, 273, 274, 275, 276, 277, 278, 279, 280, 281, 282, 283, 284, 285, 286, 287, 288, 289, 290, 291, 292, 293, 294, 295, 296, 297, 298, 299, 300, 301, 302, 303, 304, 305, 306, 307, 308, 309, 310, 311, 312, 313, 314, 315, 316, 317, 318, 319, 320, 321, 322, 323, 324, 325, 326, 327, 328, 329, 330, 331, 332, 333, 334, 335, 336, 337, 338, 339, 340, 341, 342, 343, 344, 345, 346, 347, 348, 349, 350, 351, 352, 353, 354, 355, 356, 357, 358, 359, 360, 361, 362, 363, 364, 365, 366, 367, 368, 369, 370, 371, 372, 373, 374, 375, 376, 377, 378, 379, 380, 381, 382, 383, 384, 385, 386, 387, 388, 389, 390, 391, 392, 393, 394, 395, 396, 397, 398, 399, 400, 401, 402, 403, 404, 405, 406, 407, 408, 409, 410, 411, 412, 413, 414, 415, 416, 417, 418, 419, 420, 421, 422, 423, 424, 425, 426, 427, 428, 429, 430, 431, 432, 433, 434, 435, 436, 437, 438, 439, 440, 441, 442, 443, 444, 445, 446, 447, 448, 449, 450, 451, 452, 453, 454, 455, 456, 457, 458, 459, 460, 461, 462, 463, 464, 465, 466, 467, 468, 469, 470, 471, 472, 473, 474, 475, 476, 477, 478, 479, 480, 481, 482, 483, 484, 485, 486, 487, 488, 489, 490, 491, 492, 493, 494, 495, 496, 497, 498, 499, 500, 501, 502, 503, 504, 505, 506, 507, 508, 509, 510, 511, 512, 513, 514, 515, 516, 517, 518, 519, 520, 521, 522, 523, 524, 525, 526, 527, 528, 529, 530, 531, 532, 533, 534, 535, 536, 537, 538, 539, 540, 541, 542, 543, 544, 545, 546, 547, 548, 549, 550, 551, 552, 553, 554, 555, 556, 557, 558, 559, 560, 561, 562, 563, 564, 565, 566, 567, 568, 569, 570, 571, 572, 573, 574, 575, 576, 577, 578, 579, 580, 581, 582, 583, 584, 585],
      "AcquisitionTime": ["192920.672500", "192922.162500", "192923.652500", "192925.142500", "192926.632500", "192928.122500", "192929.612500", "192931.102500", "192932.592500", "192934.082500", "192935.572500", "192937.062500", "192938.552500", "192940.042500", "192941.532500", "192943.022500", "192944.512500", "192946.002500", "192947.492500", "192948.982500", "192950.472500", "192951.962500", "192953.452500", "192954.942500", "192956.432500", "192957.922500", "192959.412500", "193000.902500", "193002.392500", "193003.882500", "193005.372500", "193006.862500", "193008.352500", "193009.842500", "193011.332500", "193012.822500", "193014.312500", "193015.802500", "193017.292500", "193018.782500", "193020.272500", "193021.762500", "193023.252500", "193024.742500", "193026.232500", "193027.722500", "193029.212500", "193030.702500", "193032.192500", "193033.682500", "193035.172500", "193036.662500", "193038.152500", "193039.642500", "193041.132500", "193042.622500", "193044.112500", "193045.602500", "193047.092500", "193048.582500", "193050.072500", "193051.562500", "193053.052500", "193054.542500", "193056.032500", "193057.522500", "193059.012500", "193100.502500", "193101.992500", "193103.482500", "193104.972500", "193106.462500", "193107.952500", "193109.442500", "193110.932500", "193112.422500", "193113.912500", "193115.402500", "193116.892500", "193118.382500", "193119.872500", "193121.362500", "193122.852500", "193124.342500", "193125.832500", "193127.322500", "193128.812500", "193130.302500", "193131.792500", "193133.282500", "193134.772500", "193136.262500", "193137.752500", "193139.242500", "193140.732500", "193142.222500", "193143.712500", "193145.202500", "193146.692500", "193148.182500", "193149.672500", "193151.162500", "193152.652500", "193154.142500", "193155.632500", "193157.122500", "193158.612500", "193200.102500", "193201.592500", "193203.082500", "193204.572500", "193206.062500", "193207.552500", "193209.042500", "193210.532500", "193212.022500", "193213.512500", "193215.002500", "193216.492500", "193217.982500", "193219.472500", "193220.962500", "193222.452500", "193223.942500", "193225.432500", "193226.922500", "193228.412500", "193229.902500", "193231.392500", "193232.882500", "193234.372500", "193235.862500", "193237.352500", "193238.842500", "193240.332500", "193241.822500", "193243.312500", "193244.802500", "193246.292500", "193247.782500", "193249.272500", "193250.762500", "193252.252500", "193253.742500", "193255.232500", "193256.722500", "193258.212500", "193259.702500", "193301.192500", "193302.682500", "193304.172500", "193305.662500", "193307.152500", "193308.642500", "193310.132500", "193311.622500", "193313.112500", "193314.602500", "193316.092500", "193317.582500", "193319.072500", "193320.562500", "193322.052500", "193323.542500", "193325.032500", "193326.522500", "193328.012500", "193329.502500", "193330.992500", "193332.482500", "193333.972500", "193335.462500", "193336.952500", "193338.442500", "193339.932500", "193341.422500", "193342.912500", "193344.402500", "193345.892500", "193347.382500", "193348.872500", "193350.362500", "193351.852500", "193353.342500", "193354.832500", "193356.322500", "193357.812500", "193359.302500", "193400.792500", "193402.282500", "193403.772500", "193405.262500", "193406.752500", "193408.242500", "193409.732500", "193411.222500", "193412.712500", "193414.202500", "193415.692500", "193417.182500", "193418.672500", "193420.162500", "193421.652500", "193423.142500", "193424.632500", "193426.122500", "193427.612500", "193429.102500", "193430.592500", "193432.082500", "193433.572500", "193435.062500", "193436.552500", "193438.042500", "193439.532500", "193441.022500", "193442.512500", "193444.002500", "193445.492500", "193446.982500", "193448.472500", "193449.962500", "193451.452500", "193452.942500", "193454.432500", "193455.922500", "193457.412500", "193458.902500", "193500.392500", "193501.882500", "193503.372500", "193504.862500", "193506.352500", "193507.842500", "193509.332500", "193510.822500", "193512.312500", "193513.802500", "193515.292500", "193516.782500", "193518.272500", "193519.762500", "193521.252500", "193522.742500", "193524.232500", "193525.722500", "193527.212500", "193528.702500", "193530.192500", "193531.682500", "193533.172500", "193534.662500", "193536.152500", "193537.642500", "193539.132500", "193540.622500", "193542.112500", "193543.602500", "193545.092500", "193546.582500", "193548.072500", "193549.562500", "193551.052500", "193552.542500", "193554.032500", "193555.522500", "193557.012500", "193558.502500", "193559.992500", "193601.482500", "193602.972500", "193604.462500", "193605.952500", "193607.442500", "193608.932500", "193610.422500", "193611.912500", "193613.402500", "193614.892500", "193616.382500", "193617.872500", "193619.362500", "193620.852500", "193622.342500", "193623.832500", "193625.322500", "193626.812500", "193628.302500", "193629.792500", "193631.282500", "193632.772500", "193634.262500", "193635.752500", "193637.242500", "193638.732500", "193640.222500", "193641.712500", "193643.202500", "193644.692500", "193646.182500", "193647.672500", "193649.162500", "193650.652500", "193652.142500", "193653.632500", "193655.122500", "193656.612500", "193658.102500", "193659.592500", "193701.082500", "193702.572500", "193704.062500", "193705.552500", "193707.042500", "193708.532500", "193710.022500", "193711.512500", "193713.002500", "193714.492500", "193715.982500", "193717.472500", "193718.962500", "193720.452500", "193721.942500", "193723.432500", "193724.922500", "193726.412500", "193727.902500", "193729.392500", "193730.882500", "193732.372500", "193733.862500", "193735.352500", "193736.842500", "193738.332500", "193739.822500", "193741.312500", "193742.802500", "193744.292500", "193745.782500", "193747.272500", "193748.762500", "193750.252500", "193751.742500", "193753.232500", "193754.722500", "193756.212500", "193757.702500", "193759.192500", "193800.682500", "193802.172500", "193803.662500", "193805.152500", "193806.642500", "193808.132500", "193809.622500", "193811.112500", "193812.602500", "193814.092500", "193815.582500", "193817.072500", "193818.562500", "193820.052500", "193821.542500", "193823.032500", "193824.522500", "193826.012500", "193827.502500", "193828.992500", "193830.482500", "193831.972500", "193833.462500", "193834.952500", "193836.442500", "193837.932500", "193839.422500", "193840.912500", "193842.402500", "193843.892500", "193845.382500", "193846.872500", "193848.362500", "193849.852500", "193851.342500", "193852.832500", "193854.322500", "193855.812500", "193857.302500", "193858.792500", "193900.282500", "193901.772500", "193903.262500", "193904.752500", "193906.242500", "193907.732500", "193909.222500", "193910.712500", "193912.202500", "193913.692500", "193915.182500", "193916.672500", "193918.162500", "193919.652500", "193921.142500", "193922.632500", "193924.122500", "193925.612500", "193927.102500", "193928.592500", "193930.082500", "193931.572500", "193933.062500", "193934.552500", "193936.042500", "193937.532500", "193939.022500", "193940.512500", "193942.002500", "193943.492500", "193944.982500", "193946.472500", "193947.962500", "193949.452500", "193950.942500", "193952.432500", "193953.922500", "193955.412500", "193956.902500", "193958.392500", "193959.882500", "194001.372500", "194002.862500", "194004.352500", "194005.842500", "194007.332500", "194008.822500", "194010.312500", "194011.802500", "194013.292500", "194014.782500", "194016.272500", "194017.762500", "194019.252500", "194020.742500", "194022.232500", "194023.722500", "194025.212500", "194026.702500", "194028.192500", "194029.682500", "194031.172500", "194032.662500", "194034.152500", "194035.642500", "194037.132500", "194038.622500", "194040.112500", "194041.602500", "194043.092500", "194044.582500", "194046.072500", "194047.562500", "194049.052500", "194050.542500", "194052.032500", "194053.522500", "194055.012500", "194056.502500", "194057.992500", "194059.482500", "194100.972500", "194102.462500", "194103.952500", "194105.442500", "194106.932500", "194108.422500", "194109.912500", "194111.402500", "194112.892500", "194114.382500", "194115.872500", "194117.362500", "194118.852500", "194120.342500", "194121.832500", "194123.322500", "194124.812500", "194126.302500", "194127.792500", "194129.282500", "194130.772500", "194132.262500", "194133.752500", "194135.242500", "194136.732500", "194138.222500", "194139.712500", "194141.202500", "194142.692500", "194144.182500", "194145.672500", "194147.162500", "194148.652500", "194150.142500", "194151.632500", "194153.122500", "194154.612500", "194156.102500", "194157.592500", "194159.082500", "194200.572500", "194202.062500", "194203.552500", "194205.042500", "194206.532500", "194208.022500", "194209.512500", "194211.002500", "194212.492500", "194213.982500", "194215.472500", "194216.962500", "194218.452500", "194219.942500", "194221.432500", "194222.922500", "194224.412500", "194225.902500", "194227.392500", "194228.882500", "194230.372500", "194231.862500", "194233.352500", "194234.842500", "194236.332500", "194237.822500", "194239.312500", "194240.802500", "194242.292500", "194243.782500", "194245.272500", "194246.762500", "194248.252500", "194249.742500", "194251.232500", "194252.722500", "194254.212500", "194255.702500", "194257.192500", "194258.682500", "194300.172500", "194301.662500", "194303.152500", "194304.642500", "194306.132500", "194307.622500", "194309.112500", "194310.602500", "194312.092500", "194313.582500", "194315.072500", "194316.562500", "194318.052500", "194319.542500", "194321.032500", "194322.522500", "194324.012500", "194325.502500", "194326.992500", "194328.482500", "194329.972500", "194331.462500", "194332.952500", "194334.442500", "194335.932500", "194337.422500", "194338.912500", "194340.402500", "194341.892500", "194343.382500", "194344.872500", "194346.362500", "194347.852500", "194349.342500", "194350.832500"],
      "ContentTime": ["193048.583000", "193048.587000", "193048.590000", "193048.594000", "193048.597000", "193048.601000", "193048.604000", "193048.616000", "193048.620000", "193048.623000", "193048.626000", "193048.630000", "193048.633000", "193048.636000", "193048.640000", "193048.646000", "193048.649000", "193048.653000", "193048.656000", "193048.660000", "193048.663000", "193048.666000", "193048.670000", "193048.673000", "193048.676000", "193048.680000", "193048.683000", "193048.686000", "193048.690000", "193048.693000", "193048.696000", "193048.700000", "193048.703000", "193048.706000", "193048.710000", "193048.713000", "193048.716000", "193048.720000", "193108.540000", "193108.544000", "193108.547000", "193108.551000", "193108.554000", "193108.557000", "193108.561000", "193108.564000", "193108.568000", "193108.571000", "193108.575000", "193108.578000", "193108.582000", "193108.595000", "193108.598000", "193108.601000", "193108.605000", "193108.608000", "193108.612000", "193108.615000", "193128.539000", "193128.543000", "193128.546000", "193128.550000", "193128.553000", "193128.556000", "193128.560000", "193128.563000", "193128.566000", "193128.570000", "193128.573000", "193128.576000", "193128.580000", "193128.583000", "193128.586000", "193128.590000", "193128.593000", "193128.597000", "193128.600000", "193128.603000", "193128.606000", "193148.539000", "193148.543000", "193148.547000", "193148.550000", "193148.553000", "193148.572000", "193148.576000", "193148.580000", "193148.583000", "193148.586000", "193148.590000", "193148.593000", "193148.597000", "193148.600000", "193148.603000", "193148.607000", "193148.610000", "193148.613000", "193148.617000", "193228.539000", "193228.543000", "193228.546000", "193228.550000", "193228.553000", "193228.556000", "193228.560000", "193228.563000", "193228.566000", "193228.570000", "193228.573000", "193228.576000", "193228.580000", "193228.583000", "193228.587000", "193228.590000", "193228.593000", "193228.597000", "193228.600000", "193228.603000", "193228.607000", "193228.610000", "193228.613000", "193228.617000", "193228.620000", "193228.623000", "193228.626000", "193308.540000", "193308.544000", "193308.547000", "193308.551000", "193308.554000", "193308.557000", "193308.561000", "193308.564000", "193308.568000", "193308.571000", "193308.574000", "193308.578000", "193308.581000", "193308.584000", "193308.588000", "193308.591000", "193308.594000", "193308.598000", "193308.601000", "193308.605000", "193308.608000", "193308.611000", "193308.615000", "193308.618000", "193308.621000", "193308.625000", "193308.628000", "193348.539000", "193348.543000", "193348.546000", "193348.550000", "193348.553000", "193348.556000", "193348.559000", "193348.563000", "193348.566000", "193348.569000", "193348.573000", "193348.576000", "193348.580000", "193348.583000", "193348.587000", "193348.590000", "193348.593000", "193348.596000", "193348.632000", "193348.635000", "193348.638000", "193348.642000", "193348.645000", "193348.648000", "193348.652000", "193348.655000", "193348.658000", "193428.539000", "193428.543000", "193428.546000", "193428.550000", "193428.554000", "193428.557000", "193428.560000", "193428.564000", "193428.567000", "193428.571000", "193428.574000", "193428.577000", "193428.581000", "193428.584000", "193428.588000", "193428.592000", "193428.595000", "193428.599000", "193428.602000", "193428.606000", "193428.609000", "193428.612000", "193428.616000", "193428.619000", "193428.622000", "193428.626000", "193428.629000", "193508.539000", "193508.543000", "193508.546000", "193508.550000", "193508.553000", "193508.556000", "193508.560000", "193508.563000", "193508.567000", "193508.570000", "193508.573000", "193508.577000", "193508.580000", "193508.583000", "193508.587000", "193508.590000", "193508.594000", "193508.597000", "193508.600000", "193508.604000", "193508.607000", "193508.610000", "193508.614000", "193508.617000", "193508.620000", "193508.624000", "193508.627000", "193548.541000", "193548.545000", "193548.548000", "193548.551000", "193548.555000", "193548.558000", "193548.562000", "193548.565000", "193548.568000", "193548.572000", "193548.575000", "193548.579000", "193548.582000", "193548.585000", "193548.589000", "193548.592000", "193548.596000", "193548.599000", "193548.602000", "193548.606000", "193548.609000", "193548.612000", "193548.616000", "193548.619000", "193548.622000", "193548.626000", "193548.629000", "193628.539000", "193628.543000", "193628.546000", "193628.550000", "193628.553000", "193628.566000", "193628.569000", "193628.573000", "193628.576000", "193628.580000", "193628.583000", "193628.586000", "193628.590000", "193628.593000", "193628.597000", "193628.600000", "193628.604000", "193628.607000", "193628.610000", "193628.614000", "193628.617000", "193628.620000", "193628.624000", "193628.627000", "193628.630000", "193628.634000", "193708.539000", "193708.543000", "193708.546000", "193708.550000", "193708.553000", "193708.556000", "193708.560000", "193708.563000", "193708.567000", "193708.570000", "193708.574000", "193708.577000", "193708.580000", "193708.584000", "193708.587000", "193708.591000", "193708.594000", "193708.597000", "193708.601000", "193708.604000", "193708.607000", "193708.611000", "193708.614000", "193708.618000", "193708.621000", "193708.624000", "193708.628000", "193748.540000", "193748.544000", "193748.547000", "193748.551000", "193748.554000", "193748.558000", "193748.561000", "193748.565000", "193748.568000", "193748.572000", "193748.575000", "193748.578000", "193748.582000", "193748.585000", "193748.589000", "193748.592000", "193748.595000", "193748.599000", "193748.602000", "193748.605000", "193748.609000", "193748.612000", "193748.616000", "193748.619000", "193748.622000", "193748.626000", "193748.629000", "193828.539000", "193828.543000", "193828.546000", "193828.550000", "193828.553000", "193828.556000", "193828.560000", "193828.563000", "193828.566000", "193828.570000", "193828.573000", "193828.577000", "193828.580000", "193828.584000", "193828.587000", "193828.590000", "193828.594000", "193828.597000", "193828.600000", "193828.616000", "193828.620000", "193828.623000", "193828.627000", "193828.630000", "193828.633000", "193828.636000", "193828.640000", "193908.539000", "193908.543000", "193908.546000", "193908.550000", "193908.553000", "193908.556000", "193908.559000", "193908.563000", "193908.566000", "193908.570000", "193908.573000", "193908.577000", "193908.580000", "193908.583000", "193908.587000", "193908.590000", "193908.593000", "193908.597000", "193908.600000", "193908.604000", "193908.607000", "193908.610000", "193908.614000", "193908.617000", "193908.620000", "193908.624000", "193908.627000", "193948.539000", "193948.543000", "193948.547000", "193948.550000", "193948.553000", "193948.557000", "193948.560000", "193948.563000", "193948.567000", "193948.570000", "193948.573000", "193948.577000", "193948.580000", "193948.584000", "193948.587000", "193948.590000", "193948.594000", "193948.597000", "193948.600000", "193948.604000", "193948.607000", "193948.610000", "193948.614000", "193948.617000", "193948.620000", "193948.624000", "193948.627000", "194028.540000", "194028.544000", "194028.548000", "194028.551000", "194028.555000", "194028.558000", "194028.561000", "194028.565000", "194028.569000", "194028.573000", "194028.577000", "194028.580000", "194028.584000", "194028.587000", "194028.590000", "194028.615000", "194028.618000", "194028.622000", "194028.625000", "194028.629000", "194028.632000", "194028.635000", "194028.639000", "194028.653000", "194028.657000", "194028.660000", "194108.540000", "194108.543000", "194108.546000", "194108.550000", "194108.553000", "194108.557000", "194108.560000", "194108.563000", "194108.567000", "194108.570000", "194108.574000", "194108.577000", "194108.580000", "194108.584000", "194108.587000", "194108.591000", "194108.594000", "194108.597000", "194108.601000", "194108.604000", "194108.607000", "194108.611000", "194108.614000", "194108.618000", "194108.621000", "194108.624000", "194108.628000", "194148.539000", "194148.543000", "194148.547000", "194148.550000", "194148.553000", "194148.557000", "194148.560000", "194148.564000", "194148.567000", "194148.571000", "194148.574000", "194148.577000", "194148.581000", "194148.584000", "194148.587000", "194148.591000", "194148.594000", "194148.598000", "194148.601000", "194148.604000", "194148.608000", "194148.611000", "194148.614000", "194148.618000", "194148.621000", "194148.624000", "194148.628000", "194228.540000", "194228.544000", "194228.547000", "194228.551000", "194228.554000", "194228.558000", "194228.561000", "194228.564000", "194228.568000", "194228.571000", "194228.575000", "194228.578000", "194228.581000", "194228.585000", "194228.588000", "194228.592000", "194228.595000", "194228.598000", "194228.602000", "194228.605000", "194228.608000", "194228.612000", "194228.615000", "194228.619000", "194228.622000", "194228.625000", "194228.629000", "194308.540000", "194308.543000", "194308.547000", "194308.550000", "194308.553000", "194308.557000", "194308.560000", "194308.563000", "194308.567000", "194308.570000", "194308.574000", "194308.577000", "194308.580000", "194308.584000", "194308.587000", "194308.591000", "194308.594000", "194308.597000", "194308.601000", "194308.604000", "194308.608000", "194308.611000", "194308.614000", "194308.618000", "194308.621000", "194308.624000", "194308.628000", "194348.539000", "194348.543000", "194348.546000", "194348.550000", "194348.553000", "194348.556000", "194348.560000", "194348.563000", "194348.567000", "194348.570000", "194348.574000", "194348.577000", "194348.580000", "194348.584000", "194348.587000", "194348.590000", "194348.594000", "194348.597000", "194348.601000", "194348.604000", "194348.607000", "194348.611000", "194348.614000", "194348.617000", "194348.621000", "194348.624000", "194348.628000", "194353.615000", "194353.618000", "194353.622000"],
