{
  "AcquisitionMatrixPE": 104,
  "AcquisitionNumber": 1,
  "AcquisitionTime": "19:46:6.257500",
  "BandwidthPerPixelPhaseEncode": 17.17,
  "BaseResolution": 104,
  "BodyPartExamined": "BRAIN",
  "CoilCombinationMethod": "Sum of Squares",
  "ConsistencyInfo": "N4_VE11C_LATEST_20160120",
  "ConversionSoftware": "dcm2niix",
  "ConversionSoftwareVersion": "v1.0.20220505",
  "DerivedVendorReportedEchoSpacing": 0.000560011,
  "DeviceSerialNumber": "167006",
  "DwellTime": 2.1e-06,
  "EchoTime": 0.037,
  "EchoTime1": 0.037,
  "EchoTime2": 0.001,
  "EchoTrainLength": 104,
  "EffectiveEchoSpacing": 0.000560011,
  "FlipAngle": 52,
  "HeudiconvVersion": "0.5.3.post811+g6206e14",
  "ImageComments": "Unaliased MB4/PE3/LB",
  "ImageOrientationPatientDICOM": [0.999316, -0.0313383, 0.0196295, 0.036294, 0.932881, -0.358352],
  "ImageOrientationText": "Tra>Cor(-21.0)>Sag(0.4)",
  "ImageType": [
    "ORIGINAL",
    "PRIMARY",
    "P",
    "MB",
    "ND",
    "MOSAIC",
    "PHASE"
],
  "ImagingFrequency": 123.26,
  "InPlanePhaseEncodingDirectionDICOM": "COL",
  "InstitutionAddress": "Chemin Queen-Mary 4565,Montreal,District,CA,H3W 1W5",
  "InstitutionName": "IUGM",
  "InstitutionalDepartmentName": "Department",
  "MRAcquisitionType": "2D",
  "MagneticFieldStrength": 3,
  "Manufacturer": "Siemens",
  "ManufacturersModelName": "Prisma_fit",
  "MatrixCoilMode": "SENSE",
  "Modality": "MR",
  "MultibandAccelerationFactor": 4,
  "PartialFourier": 1,
  "PatientPosition": "HFS",
  "PercentPhaseFOV": 100,
  "PercentSampling": 100,
  "PhaseEncodingDirection": "j",
  "PhaseEncodingSteps": 104,
  "PhaseResolution": 1,
  "PixelBandwidth": 2290,
  "ProcedureStepDescription": "games^mario3",
  "ProtocolName": "func_task-mario3_run-04",
  "PulseSequenceDetails": "%CustomerSeq%\\cmrr_mbep2d_bold",
  "ReceiveCoilActiveElements": "HC1-7;NC1,2",
  "ReceiveCoilName": "HeadNeck_64",
  "ReconMatrixPE": 104,
  "RepetitionTime": 1.49,
  "SAR": 0.0830488,
  "ScanOptions": "FS",
  "ScanningSequence": "EP",
  "SequenceName": "epfid2d1_104",
  "SequenceVariant": "SK\\SS",
  "SeriesDescription": "func_task-mario3_run-04",
  "SeriesNumber": 20,
  "ShimSetting": [605, -7271, -8809, 436, 29, -353, -24, 33],
  "SliceThickness": 2,
  "SliceTiming": [0, 0.785, 0.0975, 0.8825, 0.195, 0.98, 0.295, 1.0775, 0.3925, 1.175, 0.49, 1.275, 0.5875, 1.3725, 0.685, 0, 0.785, 0.0975, 0.8825, 0.195, 0.98, 0.295, 1.0775, 0.3925, 1.175, 0.49, 1.275, 0.5875, 1.3725, 0.685, 0, 0.785, 0.0975, 0.8825, 0.195, 0.98, 0.295, 1.0775, 0.3925, 1.175, 0.49, 1.275, 0.5875, 1.3725, 0.685, 0, 0.785, 0.0975, 0.8825, 0.195, 0.98, 0.295, 1.0775, 0.3925, 1.175, 0.49, 1.275, 0.5875, 1.3725, 0.685],
  "SoftwareVersions": "syngo MR E11",
  "SpacingBetweenSlices": 2,
  "StationName": "MRC35049",
  "TaskName": "mario3",
  "TotalReadoutTime": 0.0576811,
  "TxRefAmp": 321.111,
  "WipMemBlock": "4d560d25-d2d2-4b67-ad19-ebed45369c9b||Sequence: R017 ve11c/master r/75a17815+; Jun 28 2022 16:32:11 by eja",
  "dcmmeta_affine": [
    [-1.9986320734024048, 0.07258794456720352, 0.014163627289235592, 100.1351547241211],
    [0.06267659366130829, 1.8657618761062622, -0.7176381349563599, -72.24271392822266],
    [0.039258915930986404, 0.716703474521637, 1.866760492324829, -58.66277313232422],
    [0.0, 0.0, 0.0, 1.0]
],
  "dcmmeta_reorient_transform": [
    [0.0, -1.0, 0.0, 103.0],
    [1.0, 0.0, 0.0, 0.0],
    [0.0, 0.0, 1.0, 0.0],
    [0.0, 0.0, 0.0, 1.0]
],
  "dcmmeta_shape": [104, 104, 60, 351],
  "dcmmeta_slice_dim": 2,
  "dcmmeta_version": 0.6,
  "global": {
    "const": {
      "AcquisitionMatrix": [104, 0, 0, 104],
      "AngioFlag": "N",
      "BitsAllocated": 16,
      "BitsStored": 16,
      "BodyPartExamined": "BRAIN",
      "Columns": 832,
      "EchoNumbers": 1,
      "EchoTime": 37.0,
      "EchoTrainLength": 104,
      "FlipAngle": 52.0,
      "HighBit": 15,
      "ImageOrientationPatient": [0.99931606384249, -0.0313382980311, 0.01962945803785, 0.03629397281602, 0.93288090907746, -0.3583517224963],
      "ImagePositionPatient": [-861.53581898137, -776.25377671614, 261.74748890978],
      "ImageType": [
        "ORIGINAL",
        "PRIMARY",
        "P",
        "MB",
        "ND",
        "MOSAIC"
],
      "ImagedNucleus": "1H",
      "ImagingFrequency": 123.260177,
      "InPlanePhaseEncodingDirection": "COL",
      "LargestImagePixelValue": 4095,
      "MRAcquisitionType": "2D",
      "MagneticFieldStrength": 3.0,
      "Manufacturer": "SIEMENS",
      "ManufacturerModelName": "Prisma_fit",
      "Modality": "MR",
      "NumberOfAverages": 1.0,
      "NumberOfPhaseEncodingSteps": 104,
      "PercentPhaseFieldOfView": 100.0,
      "PercentSampling": 100.0,
      "PerformedProcedureStepStartTime": "190617.761000",
      "PhotometricInterpretation": "MONOCHROME2",
      "PixelBandwidth": 2290.0,
      "PixelRepresentation": 0,
      "PixelSpacing": [2.0, 2.0],
      "ProtocolName": "func_task-mario3_run-04",
      "RepetitionTime": 1490.0,
      "RescaleIntercept": -4096.0,
      "RescaleSlope": 2.0,
      "RescaleType": "US",
      "Rows": 832,
      "SAR": 0.08304876729367,
      "SamplesPerPixel": 1,
      "ScanOptions": "FS",
      "ScanningSequence": "EP",
      "SequenceName": "epfid2d1_104",
      "SequenceVariant": [
        "SK",
        "SS"
],
      "SeriesDescription": "func_task-mario3_run-04",
      "SeriesNumber": 20,
      "SeriesTime": "194710.464000",
      "SliceLocation": -28.123475658949,
      "SliceThickness": 2.0,
      "SmallestImagePixelValue": 0,
      "SoftwareVersions": "syngo MR E11",
      "SpacingBetweenSlices": 1.9999999702571,
      "SpecificCharacterSet": "ISO_IR 100",
      "StudyID": "1",
      "StudyTime": "190617.684000",
      "TransmitCoilName": "Body",
      "VariableFlipAngleFlag": "N",
      "WindowCenterWidthExplanation": "Algo1",
      "dBdt": 0.0},
    "slices": {}
  },
  "time": {
    "samples": {
      "AcquisitionNumber": [1, 2, 3, 4, 5, 6, 7, 8, 9, 10, 11, 12, 13, 14, 15, 16, 17, 18, 19, 20, 21, 22, 23, 24, 25, 26, 27, 28, 29, 30, 31, 32, 33, 34, 35, 36, 37, 38, 39, 40, 41, 42, 43, 44, 45, 46, 47, 48, 49, 50, 51, 52, 53, 54, 55, 56, 57, 58, 59, 60, 61, 62, 63, 64, 65, 66, 67, 68, 69, 70, 71, 72, 73, 74, 75, 76, 77, 78, 79, 80, 81, 82, 83, 84, 85, 86, 87, 88, 89, 90, 91, 92, 93, 94, 95, 96, 97, 98, 99, 100, 101, 102, 103, 104, 105, 106, 107, 108, 109, 110, 111, 112, 113, 114, 115, 116, 117, 118, 119, 120, 121, 122, 123, 124, 125, 126, 127, 128, 129, 130, 131, 132, 133, 134, 135, 136, 137, 138, 139, 140, 141, 142, 143, 144, 145, 146, 147, 148, 149, 150, 151, 152, 153, 154, 155, 156, 157, 158, 159, 160, 161, 162, 163, 164, 165, 166, 167, 168, 169, 170, 171, 172, 173, 174, 175, 176, 177, 178, 179, 180, 181, 182, 183, 184, 185, 186, 187, 188, 189, 190, 191, 192, 193, 194, 195, 196, 197, 198, 199, 200, 201, 202, 203, 204, 205, 206, 207, 208, 209, 210, 211, 212, 213, 214, 215, 216, 217, 218, 219, 220, 221, 222, 223, 224, 225, 226, 227, 228, 229, 230, 231, 232, 233, 234, 235, 236, 237, 238, 239, 240, 241, 242, 243, 244, 245, 246, 247, 248, 249, 250, 251, 252, 253, 254, 255, 256, 257, 258, 259, 260, 261, 262, 263, 264, 265, 266, 267, 268, 269, 270, 271, 272, 273, 274, 275, 276, 277, 278, 279, 280, 281, 282, 283, 284, 285, 286, 287, 288, 289, 290, 291, 292, 293, 294, 295, 296, 297, 298, 299, 300, 301, 302, 303, 304, 305, 306, 307, 308, 309, 310, 311, 312, 313, 314, 315, 316, 317, 318, 319, 320, 321, 322, 323, 324, 325, 326, 327, 328, 329, 330, 331, 332, 333, 334, 335, 336, 337, 338, 339, 340, 341, 342, 343, 344, 345, 346, 347, 348, 349, 350, 351],
      "AcquisitionTime": ["194606.257500", "194607.747500", "194609.237500", "194610.727500", "194612.217500", "194613.707500", "194615.197500", "194616.687500", "194618.177500", "194619.667500", "194621.157500", "194622.647500", "194624.137500", "194625.627500", "194627.117500", "194628.607500", "194630.097500", "194631.587500", "194633.077500", "194634.567500", "194636.057500", "194637.547500", "194639.037500", "194640.527500", "194642.017500", "194643.507500", "194644.997500", "194646.487500", "194647.977500", "194649.467500", "194650.957500", "194652.447500", "194653.937500", "194655.427500", "194656.917500", "194658.407500", "194659.897500", "194701.387500", "194702.877500", "194704.367500", "194705.857500", "194707.347500", "194708.837500", "194710.327500", "194711.817500", "194713.307500", "194714.797500", "194716.287500", "194717.777500", "194719.267500", "194720.757500", "194722.247500", "194723.737500", "194725.227500", "194726.717500", "194728.207500", "194729.697500", "194731.187500", "194732.677500", "194734.167500", "194735.657500", "194737.147500", "194738.637500", "194740.127500", "194741.617500", "194743.107500", "194744.597500", "194746.087500", "194747.577500", "194749.067500", "194750.557500", "194752.047500", "194753.537500", "194755.027500", "194756.517500", "194758.007500", "194759.497500", "194800.987500", "194802.477500", "194803.967500", "194805.457500", "194806.947500", "194808.437500", "194809.927500", "194811.417500", "194812.907500", "194814.397500", "194815.887500", "194817.377500", "194818.867500", "194820.357500", "194821.847500", "194823.337500", "194824.827500", "194826.317500", "194827.807500", "194829.297500", "194830.787500", "194832.277500", "194833.767500", "194835.257500", "194836.747500", "194838.237500", "194839.727500", "194841.217500", "194842.707500", "194844.197500", "194845.687500", "194847.177500", "194848.667500", "194850.157500", "194851.647500", "194853.137500", "194854.627500", "194856.117500", "194857.607500", "194859.097500", "194900.587500", "194902.077500", "194903.567500", "194905.057500", "194906.547500", "194908.037500", "194909.527500", "194911.017500", "194912.507500", "194913.997500", "194915.487500", "194916.977500", "194918.467500", "194919.957500", "194921.447500", "194922.937500", "194924.427500", "194925.917500", "194927.407500", "194928.897500", "194930.387500", "194931.877500", "194933.367500", "194934.857500", "194936.347500", "194937.837500", "194939.327500", "194940.817500", "194942.307500", "194943.797500", "194945.287500", "194946.777500", "194948.267500", "194949.757500", "194951.247500", "194952.737500", "194954.227500", "194955.717500", "194957.207500", "194958.697500", "195000.187500", "195001.677500", "195003.167500", "195004.657500", "195006.147500", "195007.637500", "195009.127500", "195010.617500", "195012.107500", "195013.597500", "195015.087500", "195016.577500", "195018.067500", "195019.557500", "195021.047500", "195022.537500", "195024.027500", "195025.517500", "195027.007500", "195028.497500", "195029.987500", "195031.477500", "195032.967500", "195034.457500", "195035.947500", "195037.437500", "195038.927500", "195040.417500", "195041.907500", "195043.397500", "195044.887500", "195046.377500", "195047.867500", "195049.357500", "195050.847500", "195052.337500", "195053.827500", "195055.317500", "195056.807500", "195058.297500", "195059.787500", "195101.277500", "195102.767500", "195104.257500", "195105.747500", "195107.237500", "195108.727500", "195110.217500", "195111.707500", "195113.197500", "195114.687500", "195116.177500", "195117.667500", "195119.157500", "195120.647500", "195122.137500", "195123.627500", "195125.117500", "195126.607500", "195128.097500", "195129.587500", "195131.077500", "195132.567500", "195134.057500", "195135.547500", "195137.037500", "195138.527500", "195140.017500", "195141.507500", "195142.997500", "195144.487500", "195145.977500", "195147.467500", "195148.957500", "195150.447500", "195151.937500", "195153.427500", "195154.917500", "195156.407500", "195157.897500", "195159.387500", "195200.877500", "195202.367500", "195203.857500", "195205.347500", "195206.837500", "195208.327500", "195209.817500", "195211.307500", "195212.797500", "195214.287500", "195215.777500", "195217.267500", "195218.757500", "195220.247500", "195221.737500", "195223.227500", "195224.717500", "195226.207500", "195227.697500", "195229.187500", "195230.677500", "195232.167500", "195233.657500", "195235.147500", "195236.637500", "195238.127500", "195239.617500", "195241.107500", "195242.597500", "195244.087500", "195245.577500", "195247.067500", "195248.557500", "195250.047500", "195251.537500", "195253.027500", "195254.517500", "195256.007500", "195257.497500", "195258.987500", "195300.477500", "195301.967500", "195303.457500", "195304.947500", "195306.437500", "195307.927500", "195309.417500", "195310.907500", "195312.397500", "195313.887500", "195315.377500", "195316.867500", "195318.357500", "195319.847500", "195321.337500", "195322.827500", "195324.317500", "195325.807500", "195327.297500", "195328.787500", "195330.277500", "195331.767500", "195333.257500", "195334.747500", "195336.237500", "195337.727500", "195339.217500", "195340.707500", "195342.197500", "195343.687500", "195345.177500", "195346.667500", "195348.157500", "195349.647500", "195351.137500", "195352.627500", "195354.117500", "195355.607500", "195357.097500", "195358.587500", "195400.077500", "195401.567500", "195403.057500", "195404.547500", "195406.037500", "195407.527500", "195409.017500", "195410.507500", "195411.997500", "195413.487500", "195414.977500", "195416.467500", "195417.957500", "195419.447500", "195420.937500", "195422.427500", "195423.917500", "195425.407500", "195426.897500", "195428.387500", "195429.877500", "195431.367500", "195432.857500", "195434.347500", "195435.837500", "195437.327500", "195438.817500", "195440.307500", "195441.797500", "195443.287500", "195444.777500", "195446.267500", "195447.757500"],
      "ContentTime": ["194710.466000", "194710.469000", "194710.472000", "194710.474000", "194710.477000", "194710.479000", "194710.482000", "194710.484000", "194710.487000", "194710.489000", "194710.492000", "194710.494000", "194710.497000", "194710.504000", "194710.506000", "194730.458000", "194730.461000", "194730.464000", "194730.468000", "194730.471000", "194730.474000", "194730.476000", "194730.479000", "194730.481000", "194730.484000", "194730.486000", "194730.489000", "194730.491000", "194730.494000", "194730.496000", "194730.499000", "194730.501000", "194730.504000", "194730.506000", "194730.509000", "194750.452000", "194750.454000", "194750.457000", "194750.459000", "194750.462000", "194750.464000", "194750.473000", "194750.476000", "194750.478000", "194750.481000", "194750.483000", "194750.486000", "194750.488000", "194750.491000", "194750.493000", "194750.496000", "194750.498000", "194750.501000", "194750.503000", "194750.506000", "194750.508000", "194810.454000", "194810.457000", "194810.459000", "194810.462000", "194810.464000", "194810.467000", "194810.469000", "194810.472000", "194810.474000", "194810.477000", "194810.479000", "194810.482000", "194810.484000", "194810.487000", "194810.490000", "194810.492000", "194810.495000", "194810.497000", "194810.500000", "194810.502000", "194830.443000", "194830.446000", "194830.449000", "194830.451000", "194830.454000", "194830.456000", "194830.459000", "194830.461000", "194830.464000", "194830.466000", "194830.469000", "194830.472000", "194830.474000", "194830.477000", "194830.479000", "194830.482000", "194830.484000", "194830.487000", "194830.489000", "194830.492000", "194910.475000", "194910.478000", "194910.480000", "194910.483000", "194910.485000", "194910.488000", "194910.490000", "194910.493000", "194910.495000", "194910.498000", "194910.500000", "194910.503000", "194910.505000", "194910.508000", "194910.510000", "194910.513000", "194910.516000", "194910.518000", "194910.521000", "194910.523000", "194910.526000", "194910.528000", "194910.531000", "194910.533000", "194910.536000", "194910.538000", "194950.494000", "194950.497000", "194950.499000", "194950.502000", "194950.504000", "194950.507000", "194950.509000", "194950.512000", "194950.514000", "194950.517000", "194950.519000", "194950.522000", "194950.524000", "194950.527000", "194950.529000", "194950.532000", "194950.535000", "194950.537000", "194950.540000", "194950.542000", "194950.545000", "194950.547000", "194950.550000", "194950.553000", "194950.555000", "194950.572000", "194950.575000", "195030.472000", "195030.475000", "195030.478000", "195030.480000", "195030.483000", "195030.486000", "195030.488000", "195030.491000", "195030.493000", "195030.496000", "195030.498000", "195030.501000", "195030.503000", "195030.506000", "195030.509000", "195030.511000", "195030.514000", "195030.516000", "195030.519000", "195030.521000", "195030.532000", "195030.534000", "195030.537000", "195030.539000", "195030.542000", "195030.544000", "195030.547000", "195110.486000", "195110.489000", "195110.491000", "195110.494000", "195110.497000", "195110.499000", "195110.502000", "195110.504000", "195110.507000", "195110.509000", "195110.512000", "195110.514000", "195110.517000", "195110.526000", "195110.528000", "195110.531000", "195110.533000", "195110.536000", "195110.538000", "195110.541000", "195110.543000", "195110.546000", "195110.548000", "195110.551000", "195110.553000", "195110.556000", "195110.558000", "195150.495000", "195150.497000", "195150.500000", "195150.503000", "195150.505000", "195150.508000", "195150.510000", "195150.513000", "195150.515000", "195150.518000", "195150.520000", "195150.523000", "195150.525000", "195150.528000", "195150.535000", "195150.538000", "195150.540000", "195150.543000", "195150.545000", "195150.548000", "195150.550000", "195150.553000", "195150.555000", "195150.558000", "195150.561000", "195150.563000", "195150.566000", "195230.468000", "195230.471000", "195230.473000", "195230.476000", "195230.478000", "195230.481000", "195230.483000", "195230.486000", "195230.489000", "195230.491000", "195230.494000", "195230.496000", "195230.499000", "195230.501000", "195230.504000", "195230.506000", "195230.509000", "195230.511000", "195230.514000", "195230.524000", "195230.526000", "195230.529000", "195230.531000", "195230.534000", "195230.537000", "195230.539000", "195230.542000", "195310.476000", "195310.483000", "195310.485000", "195310.488000", "195310.490000", "195310.493000", "195310.496000", "195310.498000", "195310.501000", "195310.503000", "195310.506000", "195310.508000", "195310.511000", "195310.514000", "195310.516000", "195310.519000", "195310.521000", "195310.524000", "195310.526000", "195310.529000", "195310.531000", "195310.534000", "195310.536000", "195310.539000", "195310.542000", "195310.544000", "195310.547000", "195350.489000", "195350.492000", "195350.494000", "195350.497000", "195350.500000", "195350.502000", "195350.505000", "195350.507000", "195350.510000", "195350.512000", "195350.515000", "195350.517000", "195350.520000", "195350.522000", "195350.525000", "195350.528000", "195350.530000", "195350.533000", "195350.535000", "195350.538000", "195350.540000", "195350.543000", "195350.545000", "195350.548000", "195350.551000", "195350.553000", "195430.474000", "195430.477000", "195430.480000", "195430.482000", "195430.485000", "195430.487000", "195430.490000", "195430.492000", "195430.495000", "195430.497000", "195430.500000", "195430.502000", "195430.505000", "195430.508000", "195430.510000", "195430.513000", "195430.515000", "195430.525000", "195430.528000", "195430.531000", "195430.533000", "195430.536000", "195430.538000", "195430.541000", "195430.543000", "195430.546000", "195430.549000", "195451.442000", "195451.445000", "195451.448000", "195451.450000", "195451.453000", "195451.455000", "195451.458000", "195451.460000", "195451.463000", "195451.466000", "195451.468000", "195451.471000", "195451.473000", "195451.476000"],
      "InstanceCreationTime": ["194710.466000", "194710.469000", "194710.472000", "194710.474000", "194710.477000", "194710.479000", "194710.482000", "194710.484000", "194710.487000", "194710.489000", "194710.492000", "194710.494000", "194710.497000", "194710.504000", "194710.506000", "194730.458000", "194730.461000", "194730.464000", "194730.468000", "194730.471000", "194730.474000", "194730.476000", "194730.479000", "194730.481000", "194730.484000", "194730.486000", "194730.489000", "194730.491000", "194730.494000", "194730.496000", "194730.499000", "194730.501000", "194730.504000", "194730.506000", "194730.509000", "194750.452000", "194750.454000", "194750.457000", "194750.459000", "194750.462000", "194750.464000", "194750.473000", "194750.476000", "194750.478000", "194750.481000", "194750.483000", "194750.486000", "194750.488000", "194750.491000", "194750.493000", "194750.496000", "194750.498000", "194750.501000", "194750.503000", "194750.506000", "194750.508000", "194810.454000", "194810.457000", "194810.459000", "194810.462000", "194810.464000", "194810.467000", "194810.469000", "194810.472000", "194810.474000", "194810.477000", "194810.479000", "194810.482000", "194810.484000", "194810.487000", "194810.490000", "194810.492000", "194810.495000", "194810.497000", "194810.500000", "194810.502000", "194830.443000", "194830.446000", "194830.449000", "194830.451000", "194830.454000", "194830.456000", "194830.459000", "194830.461000", "194830.464000", "194830.466000", "194830.469000", "194830.472000", "194830.474000", "194830.477000", "194830.479000", "194830.482000", "194830.484000", "194830.487000", "194830.489000", "194830.492000", "194910.475000", "194910.478000", "194910.480000", "194910.483000", "194910.485000", "194910.488000", "194910.490000", "194910.493000", "194910.495000", "194910.498000", "194910.500000", "194910.503000", "194910.505000", "194910.508000", "194910.510000", "194910.513000", "194910.516000", "194910.518000", "194910.521000", "194910.523000", "194910.526000", "194910.528000", "194910.531000", "194910.533000", "194910.536000", "194910.538000", "194950.494000", "194950.497000", "194950.499000", "194950.502000", "194950.504000", "194950.507000", "194950.509000", "194950.512000", "194950.514000", "194950.517000", "194950.519000", "194950.522000", "194950.524000", "194950.527000", "194950.529000", "194950.532000", "194950.535000", "194950.537000", "194950.540000", "194950.542000", "194950.545000", "194950.547000", "194950.550000", "194950.553000", "194950.555000", "194950.572000", "194950.575000", "195030.472000", "195030.475000", "195030.478000", "195030.480000", "195030.483000", "195030.486000", "195030.488000", "195030.491000", "195030.493000", "195030.496000", "195030.498000", "195030.501000", "195030.503000", "195030.506000", "195030.509000", "195030.511000", "195030.514000", "195030.516000", "195030.519000", "195030.521000", "195030.532000", "195030.534000", "195030.537000", "195030.539000", "195030.542000", "195030.544000", "195030.547000", "195110.486000", "195110.489000", "195110.491000", "195110.494000", "195110.497000", "195110.499000", "195110.502000", "195110.504000", "195110.507000", "195110.509000", "195110.512000", "195110.514000", "195110.517000", "195110.526000", "195110.528000", "195110.531000", "195110.533000", "195110.536000", "195110.538000", "195110.541000", "195110.543000", "195110.546000", "195110.548000", "195110.551000", "195110.553000", "195110.556000", "195110.558000", "195150.495000", "195150.497000", "195150.500000", "195150.503000", "195150.505000", "195150.508000", "195150.510000", "195150.513000", "195150.515000", "195150.518000", "195150.520000", "195150.523000", "195150.525000", "195150.528000", "195150.535000", "195150.538000", "195150.540000", "195150.543000", "195150.545000", "195150.548000", "195150.550000", "195150.553000", "195150.555000", "195150.558000", "195150.561000", "195150.563000", "195150.566000", "195230.468000", "195230.471000", "195230.473000", "195230.476000", "195230.478000", "195230.481000", "195230.483000", "195230.486000", "195230.489000", "195230.491000", "195230.494000", "195230.496000", "195230.499000", "195230.501000", "195230.504000", "195230.506000", "195230.509000", "195230.511000", "195230.514000", "195230.524000", "195230.526000", "195230.529000", "195230.531000", "195230.534000", "195230.537000", "195230.539000", "195230.542000", "195310.476000", "195310.483000", "195310.485000", "195310.488000", "195310.490000", "195310.493000", "195310.496000", "195310.498000", "195310.501000", "195310.503000", "195310.506000", "195310.508000", "195310.511000", "195310.514000", "195310.516000", "195310.519000", "195310.521000", "195310.524000", "195310.526000", "195310.529000", "195310.531000", "195310.534000", "195310.536000", "195310.539000", "195310.542000", "195310.544000", "195310.547000", "195350.489000", "195350.492000", "195350.494000", "195350.497000", "195350.500000", "195350.502000", "195350.505000", "195350.507000", "195350.510000", "195350.512000", "195350.515000", "195350.517000", "195350.520000", "195350.522000", "195350.525000", "195350.528000", "195350.530000", "195350.533000", "195350.535000", "195350.538000", "195350.540000", "195350.543000", "195350.545000", "195350.548000", "195350.551000", "195350.553000", "195430.474000", "195430.477000", "195430.480000", "195430.482000", "195430.485000", "195430.487000", "195430.490000", "195430.492000", "195430.495000", "195430.497000", "195430.500000", "195430.502000", "195430.505000", "195430.508000", "195430.510000", "195430.513000", "195430.515000", "195430.525000", "195430.528000", "195430.531000", "195430.533000", "195430.536000", "195430.538000", "195430.541000", "195430.543000", "195430.546000", "195430.549000", "195451.442000", "195451.445000", "195451.448000", "195451.450000", "195451.453000", "195451.455000", "195451.458000", "195451.460000", "195451.463000", "195451.466000", "195451.468000", "195451.471000", "195451.473000", "195451.476000"],
      "InstanceNumber": [1, 2, 3, 4, 5, 6, 7, 8, 9, 10, 11, 12, 13, 14, 15, 16, 17, 18, 19, 20, 21, 22, 23, 24, 25, 26, 27, 28, 29, 30, 31, 32, 33, 34, 35, 36, 37, 38, 39, 40, 41, 42, 43, 44, 45, 46, 47, 48, 49, 50, 51, 52, 53, 54, 55, 56, 57, 58, 59, 60, 61, 62, 63, 64, 65, 66, 67, 68, 69, 70, 71, 72, 73, 74, 75, 76, 77, 78, 79, 80, 81, 82, 83, 84, 85, 86, 87, 88, 89, 90, 91, 92, 93, 94, 95, 96, 97, 98, 99, 100, 101, 102, 103, 104, 105, 106, 107, 108, 109, 110, 111, 112, 113, 114, 115, 116, 117, 118, 119, 120, 121, 122, 123, 124, 125, 126, 127, 128, 129, 130, 131, 132, 133, 134, 135, 136, 137, 138, 139, 140, 141, 142, 143, 144, 145, 146, 147, 148, 149, 150, 151, 152, 153, 154, 155, 156, 157, 158, 159, 160, 161, 162, 163, 164, 165, 166, 167, 168, 169, 170, 171, 172, 173, 174, 175, 176, 177, 178, 179, 180, 181, 182, 183, 184, 185, 186, 187, 188, 189, 190, 191, 192, 193, 194, 195, 196, 197, 198, 199, 200, 201, 202, 203, 204, 205, 206, 207, 208, 209, 210, 211, 212, 213, 214, 215, 216, 217, 218, 219, 220, 221, 222, 223, 224, 225, 226, 227, 228, 229, 230, 231, 232, 233, 234, 235, 236, 237, 238, 239, 240, 241, 242, 243, 244, 245, 246, 247, 248, 249, 250, 251, 252, 253, 254, 255, 256, 257, 258, 259, 260, 261, 262, 263, 264, 265, 266, 267, 268, 269, 270, 271, 272, 273, 274, 275, 276, 277, 278, 279, 280, 281, 282, 283, 284, 285, 286, 287, 288, 289, 290, 291, 292, 293, 294, 295, 296, 297, 298, 299, 300, 301, 302, 303, 304, 305, 306, 307, 308, 309, 310, 311, 312, 313, 314, 315, 316, 317, 318, 319, 320, 321, 322, 323, 324, 325, 326, 327, 328, 329, 330, 331, 332, 333, 334, 335, 336, 337, 338, 339, 340, 341, 342, 343, 344, 345, 346, 347, 348, 349, 350, 351],
