{
  "AcquisitionMatrixPE": 104,
  "AcquisitionNumber": 1,
  "AcquisitionTime": "19:46:6.257500",
  "BandwidthPerPixelPhaseEncode": 17.17,
  "BaseResolution": 104,
  "BodyPartExamined": "BRAIN",
  "CoilCombinationMethod": "Sum of Squares",
  "ConsistencyInfo": "N4_VE11C_LATEST_20160120",
  "ConversionSoftware": "dcm2niix",
  "ConversionSoftwareVersion": "v1.0.20220505",
  "DerivedVendorReportedEchoSpacing": 0.000560011,
  "DeviceSerialNumber": "167006",
  "DwellTime": 2.1e-06,
  "EchoTime": 0.037,
  "EchoTrainLength": 104,
  "EffectiveEchoSpacing": 0.000560011,
  "FlipAngle": 52,
  "HeudiconvVersion": "0.5.3.post811+g6206e14",
  "ImageComments": "Unaliased MB4/PE3/LB",
  "ImageOrientationPatientDICOM": [0.999316, -0.0313383, 0.0196295, 0.036294, 0.932881, -0.358352],
  "ImageOrientationText": "Tra>Cor(-21.0)>Sag(0.4)",
  "ImageType": [
    "ORIGINAL",
    "PRIMARY",
    "M",
    "MB",
    "ND",
    "MOSAIC"
],
  "ImagingFrequency": 123.26,
  "InPlanePhaseEncodingDirectionDICOM": "COL",
  "InstitutionAddress": "Chemin Queen-Mary 4565,Montreal,District,CA,H3W 1W5",
  "InstitutionName": "IUGM",
  "InstitutionalDepartmentName": "Department",
  "MRAcquisitionType": "2D",
  "MagneticFieldStrength": 3,
  "Manufacturer": "Siemens",
  "ManufacturersModelName": "Prisma_fit",
  "MatrixCoilMode": "SENSE",
  "Modality": "MR",
  "MultibandAccelerationFactor": 4,
  "PartialFourier": 1,
  "PatientPosition": "HFS",
  "PercentPhaseFOV": 100,
  "PercentSampling": 100,
  "PhaseEncodingDirection": "j",
  "PhaseEncodingSteps": 104,
  "PhaseResolution": 1,
  "PixelBandwidth": 2290,
  "ProcedureStepDescription": "games^mario3",
  "ProtocolName": "func_task-mario3_run-04",
  "PulseSequenceDetails": "%CustomerSeq%\\cmrr_mbep2d_bold",
  "ReceiveCoilActiveElements": "HC1-7;NC1,2",
  "ReceiveCoilName": "HeadNeck_64",
  "ReconMatrixPE": 104,
  "RepetitionTime": 1.49,
  "SAR": 0.0830488,
  "ScanOptions": "FS",
  "ScanningSequence": "EP",
  "SequenceName": "epfid2d1_104",
  "SequenceVariant": "SK\\SS",
  "SeriesDescription": "func_task-mario3_run-04",
  "SeriesNumber": 19,
  "ShimSetting": [605, -7271, -8809, 436, 29, -353, -24, 33],
  "SliceThickness": 2,
  "SliceTiming": [0, 0.785, 0.0975, 0.8825, 0.195, 0.98, 0.295, 1.0775, 0.3925, 1.175, 0.49, 1.275, 0.5875, 1.3725, 0.685, 0, 0.785, 0.0975, 0.8825, 0.195, 0.98, 0.295, 1.0775, 0.3925, 1.175, 0.49, 1.275, 0.5875, 1.3725, 0.685, 0, 0.785, 0.0975, 0.8825, 0.195, 0.98, 0.295, 1.0775, 0.3925, 1.175, 0.49, 1.275, 0.5875, 1.3725, 0.685, 0, 0.785, 0.0975, 0.8825, 0.195, 0.98, 0.295, 1.0775, 0.3925, 1.175, 0.49, 1.275, 0.5875, 1.3725, 0.685],
  "SoftwareVersions": "syngo MR E11",
  "SpacingBetweenSlices": 2,
  "StationName": "MRC35049",
  "TaskName": "mario3",
  "TotalReadoutTime": 0.0576811,
  "TxRefAmp": 321.111,
  "WipMemBlock": "4d560d25-d2d2-4b67-ad19-ebed45369c9b||Sequence: R017 ve11c/master r/75a17815+; Jun 28 2022 16:32:11 by eja",
  "dcmmeta_affine": [
    [-1.9986320734024048, 0.07258794456720352, 0.014163627289235592, 100.1351547241211],
    [0.06267659366130829, 1.8657618761062622, -0.7176381349563599, -72.24271392822266],
    [0.039258915930986404, 0.716703474521637, 1.866760492324829, -58.66277313232422],
    [0.0, 0.0, 0.0, 1.0]
],
  "dcmmeta_reorient_transform": [
    [0.0, -1.0, 0.0, 103.0],
    [1.0, 0.0, 0.0, 0.0],
    [0.0, 0.0, 1.0, 0.0],
    [0.0, 0.0, 0.0, 1.0]
],
  "dcmmeta_shape": [104, 104, 60, 351],
  "dcmmeta_slice_dim": 2,
  "dcmmeta_version": 0.6,
  "global": {
    "const": {
      "AcquisitionMatrix": [104, 0, 0, 104],
      "AngioFlag": "N",
      "BitsAllocated": 16,
      "BitsStored": 16,
      "BodyPartExamined": "BRAIN",
      "Columns": 832,
      "EchoNumbers": 1,
      "EchoTime": 37.0,
      "EchoTrainLength": 104,
      "FlipAngle": 52.0,
      "HighBit": 15,
      "ImageOrientationPatient": [0.99931606384249, -0.0313382980311, 0.01962945803785, 0.03629397281602, 0.93288090907746, -0.3583517224963],
      "ImagePositionPatient": [-861.53581898137, -776.25377671614, 261.74748890978],
      "ImageType": [
        "ORIGINAL",
        "PRIMARY",
        "M",
        "MB",
        "ND",
        "MOSAIC"
],
      "ImagedNucleus": "1H",
      "ImagingFrequency": 123.260177,
      "InPlanePhaseEncodingDirection": "COL",
      "MRAcquisitionType": "2D",
      "MagneticFieldStrength": 3.0,
      "Manufacturer": "SIEMENS",
      "ManufacturerModelName": "Prisma_fit",
      "Modality": "MR",
      "NumberOfAverages": 1.0,
      "NumberOfPhaseEncodingSteps": 104,
      "PercentPhaseFieldOfView": 100.0,
      "PercentSampling": 100.0,
      "PerformedProcedureStepStartTime": "190617.761000",
      "PhotometricInterpretation": "MONOCHROME2",
      "PixelBandwidth": 2290.0,
      "PixelRepresentation": 0,
      "PixelSpacing": [2.0, 2.0],
      "ProtocolName": "func_task-mario3_run-04",
      "RepetitionTime": 1490.0,
      "Rows": 832,
      "SAR": 0.08304876729367,
      "SamplesPerPixel": 1,
      "ScanOptions": "FS",
      "ScanningSequence": "EP",
      "SequenceName": "epfid2d1_104",
      "SequenceVariant": [
        "SK",
        "SS"
],
      "SeriesDescription": "func_task-mario3_run-04",
      "SeriesNumber": 19,
      "SeriesTime": "194710.365000",
      "SliceLocation": -28.123475658949,
      "SliceThickness": 2.0,
      "SmallestImagePixelValue": 0,
      "SoftwareVersions": "syngo MR E11",
      "SpacingBetweenSlices": 1.9999999702571,
      "SpecificCharacterSet": "ISO_IR 100",
      "StudyID": "1",
      "StudyTime": "190617.684000",
      "TransmitCoilName": "Body",
      "VariableFlipAngleFlag": "N",
      "WindowCenterWidthExplanation": "Algo1",
      "dBdt": 0.0},
    "slices": {}
  },
  "time": {
    "samples": {
      "AcquisitionNumber": [1, 2, 3, 4, 5, 6, 7, 8, 9, 10, 11, 12, 13, 14, 15, 16, 17, 18, 19, 20, 21, 22, 23, 24, 25, 26, 27, 28, 29, 30, 31, 32, 33, 34, 35, 36, 37, 38, 39, 40, 41, 42, 43, 44, 45, 46, 47, 48, 49, 50, 51, 52, 53, 54, 55, 56, 57, 58, 59, 60, 61, 62, 63, 64, 65, 66, 67, 68, 69, 70, 71, 72, 73, 74, 75, 76, 77, 78, 79, 80, 81, 82, 83, 84, 85, 86, 87, 88, 89, 90, 91, 92, 93, 94, 95, 96, 97, 98, 99, 100, 101, 102, 103, 104, 105, 106, 107, 108, 109, 110, 111, 112, 113, 114, 115, 116, 117, 118, 119, 120, 121, 122, 123, 124, 125, 126, 127, 128, 129, 130, 131, 132, 133, 134, 135, 136, 137, 138, 139, 140, 141, 142, 143, 144, 145, 146, 147, 148, 149, 150, 151, 152, 153, 154, 155, 156, 157, 158, 159, 160, 161, 162, 163, 164, 165, 166, 167, 168, 169, 170, 171, 172, 173, 174, 175, 176, 177, 178, 179, 180, 181, 182, 183, 184, 185, 186, 187, 188, 189, 190, 191, 192, 193, 194, 195, 196, 197, 198, 199, 200, 201, 202, 203, 204, 205, 206, 207, 208, 209, 210, 211, 212, 213, 214, 215, 216, 217, 218, 219, 220, 221, 222, 223, 224, 225, 226, 227, 228, 229, 230, 231, 232, 233, 234, 235, 236, 237, 238, 239, 240, 241, 242, 243, 244, 245, 246, 247, 248, 249, 250, 251, 252, 253, 254, 255, 256, 257, 258, 259, 260, 261, 262, 263, 264, 265, 266, 267, 268, 269, 270, 271, 272, 273, 274, 275, 276, 277, 278, 279, 280, 281, 282, 283, 284, 285, 286, 287, 288, 289, 290, 291, 292, 293, 294, 295, 296, 297, 298, 299, 300, 301, 302, 303, 304, 305, 306, 307, 308, 309, 310, 311, 312, 313, 314, 315, 316, 317, 318, 319, 320, 321, 322, 323, 324, 325, 326, 327, 328, 329, 330, 331, 332, 333, 334, 335, 336, 337, 338, 339, 340, 341, 342, 343, 344, 345, 346, 347, 348, 349, 350, 351],
      "AcquisitionTime": ["194606.257500", "194607.747500", "194609.237500", "194610.727500", "194612.217500", "194613.707500", "194615.197500", "194616.687500", "194618.177500", "194619.667500", "194621.157500", "194622.647500", "194624.137500", "194625.627500", "194627.117500", "194628.607500", "194630.097500", "194631.587500", "194633.077500", "194634.567500", "194636.057500", "194637.547500", "194639.037500", "194640.527500", "194642.017500", "194643.507500", "194644.997500", "194646.487500", "194647.977500", "194649.467500", "194650.957500", "194652.447500", "194653.937500", "194655.427500", "194656.917500", "194658.407500", "194659.897500", "194701.387500", "194702.877500", "194704.367500", "194705.857500", "194707.347500", "194708.837500", "194710.327500", "194711.817500", "194713.307500", "194714.797500", "194716.287500", "194717.777500", "194719.267500", "194720.757500", "194722.247500", "194723.737500", "194725.227500", "194726.717500", "194728.207500", "194729.697500", "194731.187500", "194732.677500", "194734.167500", "194735.657500", "194737.147500", "194738.637500", "194740.127500", "194741.617500", "194743.107500", "194744.597500", "194746.087500", "194747.577500", "194749.067500", "194750.557500", "194752.047500", "194753.537500", "194755.027500", "194756.517500", "194758.007500", "194759.497500", "194800.987500", "194802.477500", "194803.967500", "194805.457500", "194806.947500", "194808.437500", "194809.927500", "194811.417500", "194812.907500", "194814.397500", "194815.887500", "194817.377500", "194818.867500", "194820.357500", "194821.847500", "194823.337500", "194824.827500", "194826.317500", "194827.807500", "194829.297500", "194830.787500", "194832.277500", "194833.767500", "194835.257500", "194836.747500", "194838.237500", "194839.727500", "194841.217500", "194842.707500", "194844.197500", "194845.687500", "194847.177500", "194848.667500", "194850.157500", "194851.647500", "194853.137500", "194854.627500", "194856.117500", "194857.607500", "194859.097500", "194900.587500", "194902.077500", "194903.567500", "194905.057500", "194906.547500", "194908.037500", "194909.527500", "194911.017500", "194912.507500", "194913.997500", "194915.487500", "194916.977500", "194918.467500", "194919.957500", "194921.447500", "194922.937500", "194924.427500", "194925.917500", "194927.407500", "194928.897500", "194930.387500", "194931.877500", "194933.367500", "194934.857500", "194936.347500", "194937.837500", "194939.327500", "194940.817500", "194942.307500", "194943.797500", "194945.287500", "194946.777500", "194948.267500", "194949.757500", "194951.247500", "194952.737500", "194954.227500", "194955.717500", "194957.207500", "194958.697500", "195000.187500", "195001.677500", "195003.167500", "195004.657500", "195006.147500", "195007.637500", "195009.127500", "195010.617500", "195012.107500", "195013.597500", "195015.087500", "195016.577500", "195018.067500", "195019.557500", "195021.047500", "195022.537500", "195024.027500", "195025.517500", "195027.007500", "195028.497500", "195029.987500", "195031.477500", "195032.967500", "195034.457500", "195035.947500", "195037.437500", "195038.927500", "195040.417500", "195041.907500", "195043.397500", "195044.887500", "195046.377500", "195047.867500", "195049.357500", "195050.847500", "195052.337500", "195053.827500", "195055.317500", "195056.807500", "195058.297500", "195059.787500", "195101.277500", "195102.767500", "195104.257500", "195105.747500", "195107.237500", "195108.727500", "195110.217500", "195111.707500", "195113.197500", "195114.687500", "195116.177500", "195117.667500", "195119.157500", "195120.647500", "195122.137500", "195123.627500", "195125.117500", "195126.607500", "195128.097500", "195129.587500", "195131.077500", "195132.567500", "195134.057500", "195135.547500", "195137.037500", "195138.527500", "195140.017500", "195141.507500", "195142.997500", "195144.487500", "195145.977500", "195147.467500", "195148.957500", "195150.447500", "195151.937500", "195153.427500", "195154.917500", "195156.407500", "195157.897500", "195159.387500", "195200.877500", "195202.367500", "195203.857500", "195205.347500", "195206.837500", "195208.327500", "195209.817500", "195211.307500", "195212.797500", "195214.287500", "195215.777500", "195217.267500", "195218.757500", "195220.247500", "195221.737500", "195223.227500", "195224.717500", "195226.207500", "195227.697500", "195229.187500", "195230.677500", "195232.167500", "195233.657500", "195235.147500", "195236.637500", "195238.127500", "195239.617500", "195241.107500", "195242.597500", "195244.087500", "195245.577500", "195247.067500", "195248.557500", "195250.047500", "195251.537500", "195253.027500", "195254.517500", "195256.007500", "195257.497500", "195258.987500", "195300.477500", "195301.967500", "195303.457500", "195304.947500", "195306.437500", "195307.927500", "195309.417500", "195310.907500", "195312.397500", "195313.887500", "195315.377500", "195316.867500", "195318.357500", "195319.847500", "195321.337500", "195322.827500", "195324.317500", "195325.807500", "195327.297500", "195328.787500", "195330.277500", "195331.767500", "195333.257500", "195334.747500", "195336.237500", "195337.727500", "195339.217500", "195340.707500", "195342.197500", "195343.687500", "195345.177500", "195346.667500", "195348.157500", "195349.647500", "195351.137500", "195352.627500", "195354.117500", "195355.607500", "195357.097500", "195358.587500", "195400.077500", "195401.567500", "195403.057500", "195404.547500", "195406.037500", "195407.527500", "195409.017500", "195410.507500", "195411.997500", "195413.487500", "195414.977500", "195416.467500", "195417.957500", "195419.447500", "195420.937500", "195422.427500", "195423.917500", "195425.407500", "195426.897500", "195428.387500", "195429.877500", "195431.367500", "195432.857500", "195434.347500", "195435.837500", "195437.327500", "195438.817500", "195440.307500", "195441.797500", "195443.287500", "195444.777500", "195446.267500", "195447.757500"],
      "ContentTime": ["194710.369000", "194710.384000", "194710.387000", "194710.391000", "194710.394000", "194710.397000", "194710.401000", "194710.404000", "194710.408000", "194710.412000", "194710.415000", "194710.418000", "194710.422000", "194710.425000", "194710.428000", "194730.335000", "194730.339000", "194730.342000", "194730.360000", "194730.364000", "194730.367000", "194730.370000", "194730.374000", "194730.378000", "194730.381000", "194730.384000", "194730.388000", "194730.391000", "194730.394000", "194730.398000", "194730.401000", "194730.404000", "194730.408000", "194730.411000", "194730.414000", "194750.335000", "194750.339000", "194750.342000", "194750.345000", "194750.349000", "194750.352000", "194750.356000", "194750.359000", "194750.362000", "194750.366000", "194750.369000", "194750.372000", "194750.376000", "194750.379000", "194750.382000", "194750.386000", "194750.389000", "194750.392000", "194750.396000", "194750.399000", "194750.402000", "194810.335000", "194810.339000", "194810.342000", "194810.346000", "194810.349000", "194810.352000", "194810.356000", "194810.359000", "194810.362000", "194810.366000", "194810.369000", "194810.373000", "194810.376000", "194810.379000", "194810.383000", "194810.386000", "194810.389000", "194810.393000", "194810.396000", "194810.400000", "194830.335000", "194830.339000", "194830.342000", "194830.346000", "194830.349000", "194830.352000", "194830.356000", "194830.359000", "194830.363000", "194830.366000", "194830.369000", "194830.373000", "194830.376000", "194830.379000", "194830.383000", "194830.386000", "194830.389000", "194830.393000", "194830.396000", "194830.400000", "194910.336000", "194910.340000", "194910.344000", "194910.347000", "194910.351000", "194910.354000", "194910.357000", "194910.361000", "194910.364000", "194910.368000", "194910.371000", "194910.374000", "194910.378000", "194910.381000", "194910.384000", "194910.388000", "194910.391000", "194910.395000", "194910.398000", "194910.401000", "194910.405000", "194910.408000", "194910.411000", "194910.415000", "194910.418000", "194910.422000", "194950.349000", "194950.353000", "194950.356000", "194950.360000", "194950.363000", "194950.367000", "194950.370000", "194950.373000", "194950.377000", "194950.380000", "194950.384000", "194950.387000", "194950.390000", "194950.394000", "194950.397000", "194950.400000", "194950.404000", "194950.407000", "194950.411000", "194950.414000", "194950.417000", "194950.421000", "194950.424000", "194950.427000", "194950.431000", "194950.435000", "194950.439000", "195030.335000", "195030.339000", "195030.342000", "195030.346000", "195030.349000", "195030.353000", "195030.356000", "195030.359000", "195030.363000", "195030.366000", "195030.370000", "195030.373000", "195030.376000", "195030.380000", "195030.383000", "195030.387000", "195030.390000", "195030.393000", "195030.397000", "195030.400000", "195030.403000", "195030.407000", "195030.410000", "195030.414000", "195030.417000", "195030.420000", "195030.424000", "195110.335000", "195110.339000", "195110.342000", "195110.346000", "195110.349000", "195110.353000", "195110.356000", "195110.359000", "195110.363000", "195110.366000", "195110.370000", "195110.373000", "195110.376000", "195110.380000", "195110.383000", "195110.387000", "195110.390000", "195110.393000", "195110.405000", "195110.409000", "195110.412000", "195110.415000", "195110.419000", "195110.422000", "195110.426000", "195110.429000", "195110.432000", "195150.335000", "195150.339000", "195150.342000", "195150.346000", "195150.349000", "195150.353000", "195150.356000", "195150.359000", "195150.363000", "195150.366000", "195150.369000", "195150.373000", "195150.376000", "195150.380000", "195150.383000", "195150.387000", "195150.390000", "195150.393000", "195150.397000", "195150.419000", "195150.422000", "195150.425000", "195150.429000", "195150.432000", "195150.436000", "195150.439000", "195150.442000", "195230.335000", "195230.339000", "195230.342000", "195230.346000", "195230.349000", "195230.353000", "195230.356000", "195230.360000", "195230.363000", "195230.366000", "195230.370000", "195230.373000", "195230.377000", "195230.380000", "195230.383000", "195230.387000", "195230.390000", "195230.393000", "195230.397000", "195230.400000", "195230.403000", "195230.407000", "195230.410000", "195230.413000", "195230.417000", "195230.420000", "195230.424000", "195310.335000", "195310.339000", "195310.342000", "195310.346000", "195310.349000", "195310.353000", "195310.356000", "195310.359000", "195310.363000", "195310.366000", "195310.370000", "195310.373000", "195310.376000", "195310.380000", "195310.383000", "195310.386000", "195310.390000", "195310.393000", "195310.397000", "195310.400000", "195310.403000", "195310.407000", "195310.410000", "195310.413000", "195310.417000", "195310.421000", "195310.424000", "195350.335000", "195350.339000", "195350.343000", "195350.346000", "195350.349000", "195350.353000", "195350.356000", "195350.359000", "195350.363000", "195350.366000", "195350.370000", "195350.373000", "195350.377000", "195350.380000", "195350.383000", "195350.387000", "195350.390000", "195350.394000", "195350.397000", "195350.401000", "195350.404000", "195350.407000", "195350.411000", "195350.414000", "195350.417000", "195350.421000", "195430.335000", "195430.339000", "195430.343000", "195430.346000", "195430.349000", "195430.353000", "195430.356000", "195430.360000", "195430.363000", "195430.366000", "195430.370000", "195430.373000", "195430.376000", "195430.380000", "195430.383000", "195430.387000", "195430.390000", "195430.393000", "195430.397000", "195430.400000", "195430.404000", "195430.407000", "195430.410000", "195430.414000", "195430.417000", "195430.421000", "195430.424000", "195451.361000", "195451.364000", "195451.368000", "195451.371000", "195451.375000", "195451.378000", "195451.382000", "195451.385000", "195451.389000", "195451.392000", "195451.395000", "195451.399000", "195451.402000", "195451.406000"],
      "InstanceCreationTime": ["194710.369000", "194710.384000", "194710.387000", "194710.391000", "194710.394000", "194710.397000", "194710.401000", "194710.404000", "194710.408000", "194710.412000", "194710.415000", "194710.418000", "194710.422000", "194710.425000", "194710.428000", "194730.335000", "194730.339000", "194730.342000", "194730.360000", "194730.364000", "194730.367000", "194730.370000", "194730.374000", "194730.378000", "194730.381000", "194730.384000", "194730.388000", "194730.391000", "194730.394000", "194730.398000", "194730.401000", "194730.404000", "194730.408000", "194730.411000", "194730.414000", "194750.335000", "194750.339000", "194750.342000", "194750.345000", "194750.349000", "194750.352000", "194750.356000", "194750.359000", "194750.362000", "194750.366000", "194750.369000", "194750.372000", "194750.376000", "194750.379000", "194750.382000", "194750.386000", "194750.389000", "194750.392000", "194750.396000", "194750.399000", "194750.402000", "194810.335000", "194810.339000", "194810.342000", "194810.346000", "194810.349000", "194810.352000", "194810.356000", "194810.359000", "194810.362000", "194810.366000", "194810.369000", "194810.373000", "194810.376000", "194810.379000", "194810.383000", "194810.386000", "194810.389000", "194810.393000", "194810.396000", "194810.400000", "194830.335000", "194830.339000", "194830.342000", "194830.346000", "194830.349000", "194830.352000", "194830.356000", "194830.359000", "194830.363000", "194830.366000", "194830.369000", "194830.373000", "194830.376000", "194830.379000", "194830.383000", "194830.386000", "194830.389000", "194830.393000", "194830.396000", "194830.400000", "194910.336000", "194910.340000", "194910.344000", "194910.347000", "194910.351000", "194910.354000", "194910.357000", "194910.361000", "194910.364000", "194910.368000", "194910.371000", "194910.374000", "194910.378000", "194910.381000", "194910.384000", "194910.388000", "194910.391000", "194910.395000", "194910.398000", "194910.401000", "194910.405000", "194910.408000", "194910.411000", "194910.415000", "194910.418000", "194910.422000", "194950.349000", "194950.353000", "194950.356000", "194950.360000", "194950.363000", "194950.367000", "194950.370000", "194950.373000", "194950.377000", "194950.380000", "194950.384000", "194950.387000", "194950.390000", "194950.394000", "194950.397000", "194950.400000", "194950.404000", "194950.407000", "194950.411000", "194950.414000", "194950.417000", "194950.421000", "194950.424000", "194950.427000", "194950.431000", "194950.435000", "194950.439000", "195030.335000", "195030.339000", "195030.342000", "195030.346000", "195030.349000", "195030.353000", "195030.356000", "195030.359000", "195030.363000", "195030.366000", "195030.370000", "195030.373000", "195030.376000", "195030.380000", "195030.383000", "195030.387000", "195030.390000", "195030.393000", "195030.397000", "195030.400000", "195030.403000", "195030.407000", "195030.410000", "195030.414000", "195030.417000", "195030.420000", "195030.424000", "195110.335000", "195110.339000", "195110.342000", "195110.346000", "195110.349000", "195110.353000", "195110.356000", "195110.359000", "195110.363000", "195110.366000", "195110.370000", "195110.373000", "195110.376000", "195110.380000", "195110.383000", "195110.387000", "195110.390000", "195110.393000", "195110.405000", "195110.409000", "195110.412000", "195110.415000", "195110.419000", "195110.422000", "195110.426000", "195110.429000", "195110.432000", "195150.335000", "195150.339000", "195150.342000", "195150.346000", "195150.349000", "195150.353000", "195150.356000", "195150.359000", "195150.363000", "195150.366000", "195150.369000", "195150.373000", "195150.376000", "195150.380000", "195150.383000", "195150.387000", "195150.390000", "195150.393000", "195150.397000", "195150.419000", "195150.422000", "195150.425000", "195150.429000", "195150.432000", "195150.436000", "195150.439000", "195150.442000", "195230.335000", "195230.339000", "195230.342000", "195230.346000", "195230.349000", "195230.353000", "195230.356000", "195230.360000", "195230.363000", "195230.366000", "195230.370000", "195230.373000", "195230.377000", "195230.380000", "195230.383000", "195230.387000", "195230.390000", "195230.393000", "195230.397000", "195230.400000", "195230.403000", "195230.407000", "195230.410000", "195230.413000", "195230.417000", "195230.420000", "195230.424000", "195310.335000", "195310.339000", "195310.342000", "195310.346000", "195310.349000", "195310.353000", "195310.356000", "195310.359000", "195310.363000", "195310.366000", "195310.370000", "195310.373000", "195310.376000", "195310.380000", "195310.383000", "195310.386000", "195310.390000", "195310.393000", "195310.397000", "195310.400000", "195310.403000", "195310.407000", "195310.410000", "195310.413000", "195310.417000", "195310.421000", "195310.424000", "195350.335000", "195350.339000", "195350.343000", "195350.346000", "195350.349000", "195350.353000", "195350.356000", "195350.359000", "195350.363000", "195350.366000", "195350.370000", "195350.373000", "195350.377000", "195350.380000", "195350.383000", "195350.387000", "195350.390000", "195350.394000", "195350.397000", "195350.401000", "195350.404000", "195350.407000", "195350.411000", "195350.414000", "195350.417000", "195350.421000", "195430.335000", "195430.339000", "195430.343000", "195430.346000", "195430.349000", "195430.353000", "195430.356000", "195430.360000", "195430.363000", "195430.366000", "195430.370000", "195430.373000", "195430.376000", "195430.380000", "195430.383000", "195430.387000", "195430.390000", "195430.393000", "195430.397000", "195430.400000", "195430.404000", "195430.407000", "195430.410000", "195430.414000", "195430.417000", "195430.421000", "195430.424000", "195451.361000", "195451.364000", "195451.368000", "195451.371000", "195451.375000", "195451.378000", "195451.382000", "195451.385000", "195451.389000", "195451.392000", "195451.395000", "195451.399000", "195451.402000", "195451.406000"],
      "InstanceNumber": [1, 2, 3, 4, 5, 6, 7, 8, 9, 10, 11, 12, 13, 14, 15, 16, 17, 18, 19, 20, 21, 22, 23, 24, 25, 26, 27, 28, 29, 30, 31, 32, 33, 34, 35, 36, 37, 38, 39, 40, 41, 42, 43, 44, 45, 46, 47, 48, 49, 50, 51, 52, 53, 54, 55, 56, 57, 58, 59, 60, 61, 62, 63, 64, 65, 66, 67, 68, 69, 70, 71, 72, 73, 74, 75, 76, 77, 78, 79, 80, 81, 82, 83, 84, 85, 86, 87, 88, 89, 90, 91, 92, 93, 94, 95, 96, 97, 98, 99, 100, 101, 102, 103, 104, 105, 106, 107, 108, 109, 110, 111, 112, 113, 114, 115, 116, 117, 118, 119, 120, 121, 122, 123, 124, 125, 126, 127, 128, 129, 130, 131, 132, 133, 134, 135, 136, 137, 138, 139, 140, 141, 142, 143, 144, 145, 146, 147, 148, 149, 150, 151, 152, 153, 154, 155, 156, 157, 158, 159, 160, 161, 162, 163, 164, 165, 166, 167, 168, 169, 170, 171, 172, 173, 174, 175, 176, 177, 178, 179, 180, 181, 182, 183, 184, 185, 186, 187, 188, 189, 190, 191, 192, 193, 194, 195, 196, 197, 198, 199, 200, 201, 202, 203, 204, 205, 206, 207, 208, 209, 210, 211, 212, 213, 214, 215, 216, 217, 218, 219, 220, 221, 222, 223, 224, 225, 226, 227, 228, 229, 230, 231, 232, 233, 234, 235, 236, 237, 238, 239, 240, 241, 242, 243, 244, 245, 246, 247, 248, 249, 250, 251, 252, 253, 254, 255, 256, 257, 258, 259, 260, 261, 262, 263, 264, 265, 266, 267, 268, 269, 270, 271, 272, 273, 274, 275, 276, 277, 278, 279, 280, 281, 282, 283, 284, 285, 286, 287, 288, 289, 290, 291, 292, 293, 294, 295, 296, 297, 298, 299, 300, 301, 302, 303, 304, 305, 306, 307, 308, 309, 310, 311, 312, 313, 314, 315, 316, 317, 318, 319, 320, 321, 322, 323, 324, 325, 326, 327, 328, 329, 330, 331, 332, 333, 334, 335, 336, 337, 338, 339, 340, 341, 342, 343, 344, 345, 346, 347, 348, 349, 350, 351],
      "LargestImagePixelValue": [56817, 55372, 54739, 53942, 53687, 53501, 53942, 53593, 53948, 53664, 53229, 53700, 53254, 53839, 53396, 53703, 53759, 53111, 53528, 53490, 53391, 53410, 53610, 53283, 53396, 53086, 53934, 53971, 53412, 53421, 53234, 53634, 53508, 53586, 53213, 53404, 53081, 53452, 53479, 53177, 53093, 52917, 53417, 53089, 52955, 53150, 53672, 52624, 53019, 52995, 52681, 52679, 52558, 52982, 52793, 53113, 53450, 53587, 53584, 53344, 53133, 53519, 53160, 53511, 53637, 53973, 53597, 53807, 53538, 53865, 54163, 53884, 54715, 54564, 54597, 54532, 55028, 54890, 54709, 54857, 55036, 55465, 54949, 55087, 55736, 55518, 55357, 55661, 55775, 55377, 55995, 56003, 55594, 56339, 56058, 55741, 55604, 56043, 55354, 55562, 55760, 56086, 55973, 55509, 55015, 55910, 55811, 55308, 55604, 55605, 55426, 55410, 55892, 55452, 55233, 55097, 55318, 56132, 55287, 55819, 55591, 55581, 55521, 56120, 55678, 56115, 56097, 55751, 56179, 56044, 56449, 56282, 56220, 55913, 56348, 55873, 55835, 57046, 57319, 57027, 56395, 56163, 55007, 55191, 55194, 55649, 55954, 56439, 56262, 56446, 56650, 56128, 55554, 55246, 55476, 55427, 55649, 55694, 52140, 60266, 57355, 56110, 55910, 55754, 55168, 55015, 55043, 55027, 54988, 55317, 55394, 55332, 54914, 54868, 55148, 54837, 54909, 55456, 55190, 55322, 55198, 55189, 55557, 55475, 55685, 55447, 55362, 55425, 55238, 55324, 55219, 54966, 55654, 55065, 55607, 55092, 55710, 55296, 55152, 55345, 55445, 55234, 55422, 55500, 55441, 55648, 55175, 56211, 55981, 56865, 56827, 56862, 56295, 56284, 56792, 56791, 56835, 56260, 57217, 56375, 56695, 57170, 56995, 57046, 56671, 57229, 56494, 56923, 56785, 57116, 57159, 56812, 56913, 56742, 56716, 56451, 56873, 56762, 57026, 56622, 56916, 57210, 57150, 57183, 56877, 56791, 56662, 56825, 56689, 56491, 56992, 57876, 57494, 57156, 56863, 56340, 55798, 56126, 55753, 56005, 55608, 55129, 55488, 54950, 54852, 54619, 54772, 55014, 54554, 55577, 55653, 55711, 54911, 55407, 55402, 55644, 55257, 55089, 55189, 55781, 54907, 55011, 54627, 55285, 54826, 55208, 54869, 54927, 54873, 55246, 54872, 55304, 55320, 55350, 55146, 55570, 55561, 56003, 55075, 54974, 55900, 54954, 55102, 55636, 55837, 55387, 55611, 55220, 54867, 55164, 55251, 55156, 55520, 55222, 54777, 55185, 55413, 55429, 54936, 55062, 55133, 55289, 54915, 55439, 54987, 54673, 54706, 54189, 54282, 54775, 55348, 56169, 55271, 55990, 55182, 55309, 54765, 54567, 53929, 54260, 53935, 53937, 53605, 53739, 54401, 53650, 54348, 54378, 54426, 53817, 53733],
