{
  "AcquisitionMatrixPE": 104,
  "AcquisitionNumber": 1,
  "AcquisitionTime": "19:29:20.672500",
  "BandwidthPerPixelPhaseEncode": 17.17,
  "BaseResolution": 104,
  "BodyPartExamined": "BRAIN",
  "CoilCombinationMethod": "Sum of Squares",
  "ConsistencyInfo": "N4_VE11C_LATEST_20160120",
  "ConversionSoftware": "dcm2niix",
  "ConversionSoftwareVersion": "v1.0.20220505",
  "DerivedVendorReportedEchoSpacing": 0.000560011,
  "DeviceSerialNumber": "167006",
  "DwellTime": 2.1e-06,
  "EchoTime": 0.037,
  "EchoTime1": 0.037,
  "EchoTime2": 0.001,
  "EchoTrainLength": 104,
  "EffectiveEchoSpacing": 0.000560011,
  "FlipAngle": 52,
  "HeudiconvVersion": "0.5.3.post811+g6206e14",
  "ImageComments": "Unaliased MB4/PE3/LB",
  "ImageOrientationPatientDICOM": [0.999316, -0.0313383, 0.0196295, 0.036294, 0.932881, -0.358352],
  "ImageOrientationText": "Tra>Cor(-21.0)>Sag(0.4)",
  "ImageType": [
    "ORIGINAL",
    "PRIMARY",
    "P",
    "MB",
    "ND",
    "MOSAIC",
    "PHASE"
],
  "ImagingFrequency": 123.26,
  "InPlanePhaseEncodingDirectionDICOM": "COL",
  "InstitutionAddress": "Chemin Queen-Mary 4565,Montreal,District,CA,H3W 1W5",
  "InstitutionName": "IUGM",
  "InstitutionalDepartmentName": "Department",
  "MRAcquisitionType": "2D",
  "MagneticFieldStrength": 3,
  "Manufacturer": "Siemens",
  "ManufacturersModelName": "Prisma_fit",
  "MatrixCoilMode": "SENSE",
  "Modality": "MR",
  "MultibandAccelerationFactor": 4,
  "PartialFourier": 1,
  "PatientPosition": "HFS",
  "PercentPhaseFOV": 100,
  "PercentSampling": 100,
  "PhaseEncodingDirection": "j",
  "PhaseEncodingSteps": 104,
  "PhaseResolution": 1,
  "PixelBandwidth": 2290,
  "ProcedureStepDescription": "games^mario3",
  "ProtocolName": "func_task-mario3_run-03",
  "PulseSequenceDetails": "%CustomerSeq%\\cmrr_mbep2d_bold",
  "ReceiveCoilActiveElements": "HC1-7;NC1,2",
  "ReceiveCoilName": "HeadNeck_64",
  "ReconMatrixPE": 104,
  "RepetitionTime": 1.49,
  "SAR": 0.0830488,
  "ScanOptions": "FS",
  "ScanningSequence": "EP",
  "SequenceName": "epfid2d1_104",
  "SequenceVariant": "SK\\SS",
  "SeriesDescription": "func_task-mario3_run-03",
  "SeriesNumber": 17,
  "ShimSetting": [605, -7271, -8809, 436, 29, -353, -24, 33],
  "SliceThickness": 2,
  "SliceTiming": [0, 0.7825, 0.0975, 0.8825, 0.195, 0.98, 0.2925, 1.0775, 0.3925, 1.175, 0.49, 1.2725, 0.5875, 1.3725, 0.685, 0, 0.7825, 0.0975, 0.8825, 0.195, 0.98, 0.2925, 1.0775, 0.3925, 1.175, 0.49, 1.2725, 0.5875, 1.3725, 0.685, 0, 0.7825, 0.0975, 0.8825, 0.195, 0.98, 0.2925, 1.0775, 0.3925, 1.175, 0.49, 1.2725, 0.5875, 1.3725, 0.685, 0, 0.7825, 0.0975, 0.8825, 0.195, 0.98, 0.2925, 1.0775, 0.3925, 1.175, 0.49, 1.2725, 0.5875, 1.3725, 0.685],
  "SoftwareVersions": "syngo MR E11",
  "SpacingBetweenSlices": 2,
  "StationName": "MRC35049",
  "TaskName": "mario3",
  "TotalReadoutTime": 0.0576811,
  "TxRefAmp": 321.111,
  "WipMemBlock": "5b196370-8903-44d7-9cd9-6b7ef8c60a4f||Sequence: R017 ve11c/master r/75a17815+; Jun 28 2022 16:32:11 by eja",
  "dcmmeta_affine": [
    [-1.9986320734024048, 0.07258794456720352, 0.014163627289235592, 100.1351547241211],
    [0.06267659366130829, 1.8657618761062622, -0.7176381349563599, -72.24271392822266],
    [0.039258915930986404, 0.716703474521637, 1.866760492324829, -58.66277313232422],
    [0.0, 0.0, 0.0, 1.0]
],
  "dcmmeta_reorient_transform": [
    [0.0, -1.0, 0.0, 103.0],
    [1.0, 0.0, 0.0, 0.0],
    [0.0, 0.0, 1.0, 0.0],
    [0.0, 0.0, 0.0, 1.0]
],
  "dcmmeta_shape": [104, 104, 60, 585],
  "dcmmeta_slice_dim": 2,
  "dcmmeta_version": 0.6,
  "global": {
    "const": {
      "AcquisitionMatrix": [104, 0, 0, 104],
      "AngioFlag": "N",
      "BitsAllocated": 16,
      "BitsStored": 16,
      "BodyPartExamined": "BRAIN",
      "Columns": 832,
      "EchoNumbers": 1,
      "EchoTime": 37.0,
      "EchoTrainLength": 104,
      "FlipAngle": 52.0,
      "HighBit": 15,
      "ImageOrientationPatient": [0.99931606384249, -0.0313382980311, 0.01962945803785, 0.03629397281602, 0.93288090907746, -0.3583517224963],
      "ImagePositionPatient": [-861.53581898137, -776.25377671614, 261.74748890978],
      "ImageType": [
        "ORIGINAL",
        "PRIMARY",
        "P",
        "MB",
        "ND",
        "MOSAIC"
],
      "ImagedNucleus": "1H",
      "ImagingFrequency": 123.260179,
      "InPlanePhaseEncodingDirection": "COL",
      "LargestImagePixelValue": 4095,
      "MRAcquisitionType": "2D",
      "MagneticFieldStrength": 3.0,
      "Manufacturer": "SIEMENS",
      "ManufacturerModelName": "Prisma_fit",
      "Modality": "MR",
      "NumberOfAverages": 1.0,
      "NumberOfPhaseEncodingSteps": 104,
      "PercentPhaseFieldOfView": 100.0,
      "PercentSampling": 100.0,
      "PerformedProcedureStepStartTime": "190617.761000",
      "PhotometricInterpretation": "MONOCHROME2",
      "PixelBandwidth": 2290.0,
      "PixelRepresentation": 0,
      "PixelSpacing": [2.0, 2.0],
      "ProtocolName": "func_task-mario3_run-03",
      "RepetitionTime": 1490.0,
      "RescaleIntercept": -4096.0,
      "RescaleSlope": 2.0,
      "RescaleType": "US",
      "Rows": 832,
      "SAR": 0.08304876729367,
      "SamplesPerPixel": 1,
      "ScanOptions": "FS",
      "ScanningSequence": "EP",
      "SequenceName": "epfid2d1_104",
      "SequenceVariant": [
        "SK",
        "SS"
],
      "SeriesDescription": "func_task-mario3_run-03",
      "SeriesNumber": 17,
      "SeriesTime": "193048.785000",
      "SliceLocation": -28.123475658949,
      "SliceThickness": 2.0,
      "SmallestImagePixelValue": 0,
      "SoftwareVersions": "syngo MR E11",
      "SpacingBetweenSlices": 1.9999999702571,
      "SpecificCharacterSet": "ISO_IR 100",
      "StudyID": "1",
      "StudyTime": "190617.684000",
      "TransmitCoilName": "Body",
      "VariableFlipAngleFlag": "N",
      "WindowCenterWidthExplanation": "Algo1",
      "dBdt": 0.0},
    "slices": {}
  },
  "time": {
    "samples": {
      "AcquisitionNumber": [1, 2, 3, 4, 5, 6, 7, 8, 9, 10, 11, 12, 13, 14, 15, 16, 17, 18, 19, 20, 21, 22, 23, 24, 25, 26, 27, 28, 29, 30, 31, 32, 33, 34, 35, 36, 37, 38, 39, 40, 41, 42, 43, 44, 45, 46, 47, 48, 49, 50, 51, 52, 53, 54, 55, 56, 57, 58, 59, 60, 61, 62, 63, 64, 65, 66, 67, 68, 69, 70, 71, 72, 73, 74, 75, 76, 77, 78, 79, 80, 81, 82, 83, 84, 85, 86, 87, 88, 89, 90, 91, 92, 93, 94, 95, 96, 97, 98, 99, 100, 101, 102, 103, 104, 105, 106, 107, 108, 109, 110, 111, 112, 113, 114, 115, 116, 117, 118, 119, 120, 121, 122, 123, 124, 125, 126, 127, 128, 129, 130, 131, 132, 133, 134, 135, 136, 137, 138, 139, 140, 141, 142, 143, 144, 145, 146, 147, 148, 149, 150, 151, 152, 153, 154, 155, 156, 157, 158, 159, 160, 161, 162, 163, 164, 165, 166, 167, 168, 169, 170, 171, 172, 173, 174, 175, 176, 177, 178, 179, 180, 181, 182, 183, 184, 185, 186, 187, 188, 189, 190, 191, 192, 193, 194, 195, 196, 197, 198, 199, 200, 201, 202, 203, 204, 205, 206, 207, 208, 209, 210, 211, 212, 213, 214, 215, 216, 217, 218, 219, 220, 221, 222, 223, 224, 225, 226, 227, 228, 229, 230, 231, 232, 233, 234, 235, 236, 237, 238, 239, 240, 241, 242, 243, 244, 245, 246, 247, 248, 249, 250, 251, 252, 253, 254, 255, 256, 257, 258, 259, 260, 261, 262, 263, 264, 265, 266, 267, 268, 269, 270, 271, 272, 273, 274, 275, 276, 277, 278, 279, 280, 281, 282, 283, 284, 285, 286, 287, 288, 289, 290, 291, 292, 293, 294, 295, 296, 297, 298, 299, 300, 301, 302, 303, 304, 305, 306, 307, 308, 309, 310, 311, 312, 313, 314, 315, 316, 317, 318, 319, 320, 321, 322, 323, 324, 325, 326, 327, 328, 329, 330, 331, 332, 333, 334, 335, 336, 337, 338, 339, 340, 341, 342, 343, 344, 345, 346, 347, 348, 349, 350, 351, 352, 353, 354, 355, 356, 357, 358, 359, 360, 361, 362, 363, 364, 365, 366, 367, 368, 369, 370, 371, 372, 373, 374, 375, 376, 377, 378, 379, 380, 381, 382, 383, 384, 385, 386, 387, 388, 389, 390, 391, 392, 393, 394, 395, 396, 397, 398, 399, 400, 401, 402, 403, 404, 405, 406, 407, 408, 409, 410, 411, 412, 413, 414, 415, 416, 417, 418, 419, 420, 421, 422, 423, 424, 425, 426, 427, 428, 429, 430, 431, 432, 433, 434, 435, 436, 437, 438, 439, 440, 441, 442, 443, 444, 445, 446, 447, 448, 449, 450, 451, 452, 453, 454, 455, 456, 457, 458, 459, 460, 461, 462, 463, 464, 465, 466, 467, 468, 469, 470, 471, 472, 473, 474, 475, 476, 477, 478, 479, 480, 481, 482, 483, 484, 485, 486, 487, 488, 489, 490, 491, 492, 493, 494, 495, 496, 497, 498, 499, 500, 501, 502, 503, 504, 505, 506, 507, 508, 509, 510, 511, 512, 513, 514, 515, 516, 517, 518, 519, 520, 521, 522, 523, 524, 525, 526, 527, 528, 529, 530, 531, 532, 533, 534, 535, 536, 537, 538, 539, 540, 541, 542, 543, 544, 545, 546, 547, 548, 549, 550, 551, 552, 553, 554, 555, 556, 557, 558, 559, 560, 561, 562, 563, 564, 565, 566, 567, 568, 569, 570, 571, 572, 573, 574, 575, 576, 577, 578, 579, 580, 581, 582, 583, 584, 585],
      "AcquisitionTime": ["192920.672500", "192922.162500", "192923.652500", "192925.142500", "192926.632500", "192928.122500", "192929.612500", "192931.102500", "192932.592500", "192934.082500", "192935.572500", "192937.062500", "192938.552500", "192940.042500", "192941.532500", "192943.022500", "192944.512500", "192946.002500", "192947.492500", "192948.982500", "192950.472500", "192951.962500", "192953.452500", "192954.942500", "192956.432500", "192957.922500", "192959.412500", "193000.902500", "193002.392500", "193003.882500", "193005.372500", "193006.862500", "193008.352500", "193009.842500", "193011.332500", "193012.822500", "193014.312500", "193015.802500", "193017.292500", "193018.782500", "193020.272500", "193021.762500", "193023.252500", "193024.742500", "193026.232500", "193027.722500", "193029.212500", "193030.702500", "193032.192500", "193033.682500", "193035.172500", "193036.662500", "193038.152500", "193039.642500", "193041.132500", "193042.622500", "193044.112500", "193045.602500", "193047.092500", "193048.582500", "193050.072500", "193051.562500", "193053.052500", "193054.542500", "193056.032500", "193057.522500", "193059.012500", "193100.502500", "193101.992500", "193103.482500", "193104.972500", "193106.462500", "193107.952500", "193109.442500", "193110.932500", "193112.422500", "193113.912500", "193115.402500", "193116.892500", "193118.382500", "193119.872500", "193121.362500", "193122.852500", "193124.342500", "193125.832500", "193127.322500", "193128.812500", "193130.302500", "193131.792500", "193133.282500", "193134.772500", "193136.262500", "193137.752500", "193139.242500", "193140.732500", "193142.222500", "193143.712500", "193145.202500", "193146.692500", "193148.182500", "193149.672500", "193151.162500", "193152.652500", "193154.142500", "193155.632500", "193157.122500", "193158.612500", "193200.102500", "193201.592500", "193203.082500", "193204.572500", "193206.062500", "193207.552500", "193209.042500", "193210.532500", "193212.022500", "193213.512500", "193215.002500", "193216.492500", "193217.982500", "193219.472500", "193220.962500", "193222.452500", "193223.942500", "193225.432500", "193226.922500", "193228.412500", "193229.902500", "193231.392500", "193232.882500", "193234.372500", "193235.862500", "193237.352500", "193238.842500", "193240.332500", "193241.822500", "193243.312500", "193244.802500", "193246.292500", "193247.782500", "193249.272500", "193250.762500", "193252.252500", "193253.742500", "193255.232500", "193256.722500", "193258.212500", "193259.702500", "193301.192500", "193302.682500", "193304.172500", "193305.662500", "193307.152500", "193308.642500", "193310.132500", "193311.622500", "193313.112500", "193314.602500", "193316.092500", "193317.582500", "193319.072500", "193320.562500", "193322.052500", "193323.542500", "193325.032500", "193326.522500", "193328.012500", "193329.502500", "193330.992500", "193332.482500", "193333.972500", "193335.462500", "193336.952500", "193338.442500", "193339.932500", "193341.422500", "193342.912500", "193344.402500", "193345.892500", "193347.382500", "193348.872500", "193350.362500", "193351.852500", "193353.342500", "193354.832500", "193356.322500", "193357.812500", "193359.302500", "193400.792500", "193402.282500", "193403.772500", "193405.262500", "193406.752500", "193408.242500", "193409.732500", "193411.222500", "193412.712500", "193414.202500", "193415.692500", "193417.182500", "193418.672500", "193420.162500", "193421.652500", "193423.142500", "193424.632500", "193426.122500", "193427.612500", "193429.102500", "193430.592500", "193432.082500", "193433.572500", "193435.062500", "193436.552500", "193438.042500", "193439.532500", "193441.022500", "193442.512500", "193444.002500", "193445.492500", "193446.982500", "193448.472500", "193449.962500", "193451.452500", "193452.942500", "193454.432500", "193455.922500", "193457.412500", "193458.902500", "193500.392500", "193501.882500", "193503.372500", "193504.862500", "193506.352500", "193507.842500", "193509.332500", "193510.822500", "193512.312500", "193513.802500", "193515.292500", "193516.782500", "193518.272500", "193519.762500", "193521.252500", "193522.742500", "193524.232500", "193525.722500", "193527.212500", "193528.702500", "193530.192500", "193531.682500", "193533.172500", "193534.662500", "193536.152500", "193537.642500", "193539.132500", "193540.622500", "193542.112500", "193543.602500", "193545.092500", "193546.582500", "193548.072500", "193549.562500", "193551.052500", "193552.542500", "193554.032500", "193555.522500", "193557.012500", "193558.502500", "193559.992500", "193601.482500", "193602.972500", "193604.462500", "193605.952500", "193607.442500", "193608.932500", "193610.422500", "193611.912500", "193613.402500", "193614.892500", "193616.382500", "193617.872500", "193619.362500", "193620.852500", "193622.342500", "193623.832500", "193625.322500", "193626.812500", "193628.302500", "193629.792500", "193631.282500", "193632.772500", "193634.262500", "193635.752500", "193637.242500", "193638.732500", "193640.222500", "193641.712500", "193643.202500", "193644.692500", "193646.182500", "193647.672500", "193649.162500", "193650.652500", "193652.142500", "193653.632500", "193655.122500", "193656.612500", "193658.102500", "193659.592500", "193701.082500", "193702.572500", "193704.062500", "193705.552500", "193707.042500", "193708.532500", "193710.022500", "193711.512500", "193713.002500", "193714.492500", "193715.982500", "193717.472500", "193718.962500", "193720.452500", "193721.942500", "193723.432500", "193724.922500", "193726.412500", "193727.902500", "193729.392500", "193730.882500", "193732.372500", "193733.862500", "193735.352500", "193736.842500", "193738.332500", "193739.822500", "193741.312500", "193742.802500", "193744.292500", "193745.782500", "193747.272500", "193748.762500", "193750.252500", "193751.742500", "193753.232500", "193754.722500", "193756.212500", "193757.702500", "193759.192500", "193800.682500", "193802.172500", "193803.662500", "193805.152500", "193806.642500", "193808.132500", "193809.622500", "193811.112500", "193812.602500", "193814.092500", "193815.582500", "193817.072500", "193818.562500", "193820.052500", "193821.542500", "193823.032500", "193824.522500", "193826.012500", "193827.502500", "193828.992500", "193830.482500", "193831.972500", "193833.462500", "193834.952500", "193836.442500", "193837.932500", "193839.422500", "193840.912500", "193842.402500", "193843.892500", "193845.382500", "193846.872500", "193848.362500", "193849.852500", "193851.342500", "193852.832500", "193854.322500", "193855.812500", "193857.302500", "193858.792500", "193900.282500", "193901.772500", "193903.262500", "193904.752500", "193906.242500", "193907.732500", "193909.222500", "193910.712500", "193912.202500", "193913.692500", "193915.182500", "193916.672500", "193918.162500", "193919.652500", "193921.142500", "193922.632500", "193924.122500", "193925.612500", "193927.102500", "193928.592500", "193930.082500", "193931.572500", "193933.062500", "193934.552500", "193936.042500", "193937.532500", "193939.022500", "193940.512500", "193942.002500", "193943.492500", "193944.982500", "193946.472500", "193947.962500", "193949.452500", "193950.942500", "193952.432500", "193953.922500", "193955.412500", "193956.902500", "193958.392500", "193959.882500", "194001.372500", "194002.862500", "194004.352500", "194005.842500", "194007.332500", "194008.822500", "194010.312500", "194011.802500", "194013.292500", "194014.782500", "194016.272500", "194017.762500", "194019.252500", "194020.742500", "194022.232500", "194023.722500", "194025.212500", "194026.702500", "194028.192500", "194029.682500", "194031.172500", "194032.662500", "194034.152500", "194035.642500", "194037.132500", "194038.622500", "194040.112500", "194041.602500", "194043.092500", "194044.582500", "194046.072500", "194047.562500", "194049.052500", "194050.542500", "194052.032500", "194053.522500", "194055.012500", "194056.502500", "194057.992500", "194059.482500", "194100.972500", "194102.462500", "194103.952500", "194105.442500", "194106.932500", "194108.422500", "194109.912500", "194111.402500", "194112.892500", "194114.382500", "194115.872500", "194117.362500", "194118.852500", "194120.342500", "194121.832500", "194123.322500", "194124.812500", "194126.302500", "194127.792500", "194129.282500", "194130.772500", "194132.262500", "194133.752500", "194135.242500", "194136.732500", "194138.222500", "194139.712500", "194141.202500", "194142.692500", "194144.182500", "194145.672500", "194147.162500", "194148.652500", "194150.142500", "194151.632500", "194153.122500", "194154.612500", "194156.102500", "194157.592500", "194159.082500", "194200.572500", "194202.062500", "194203.552500", "194205.042500", "194206.532500", "194208.022500", "194209.512500", "194211.002500", "194212.492500", "194213.982500", "194215.472500", "194216.962500", "194218.452500", "194219.942500", "194221.432500", "194222.922500", "194224.412500", "194225.902500", "194227.392500", "194228.882500", "194230.372500", "194231.862500", "194233.352500", "194234.842500", "194236.332500", "194237.822500", "194239.312500", "194240.802500", "194242.292500", "194243.782500", "194245.272500", "194246.762500", "194248.252500", "194249.742500", "194251.232500", "194252.722500", "194254.212500", "194255.702500", "194257.192500", "194258.682500", "194300.172500", "194301.662500", "194303.152500", "194304.642500", "194306.132500", "194307.622500", "194309.112500", "194310.602500", "194312.092500", "194313.582500", "194315.072500", "194316.562500", "194318.052500", "194319.542500", "194321.032500", "194322.522500", "194324.012500", "194325.502500", "194326.992500", "194328.482500", "194329.972500", "194331.462500", "194332.952500", "194334.442500", "194335.932500", "194337.422500", "194338.912500", "194340.402500", "194341.892500", "194343.382500", "194344.872500", "194346.362500", "194347.852500", "194349.342500", "194350.832500"],
      "ContentTime": ["193048.787000", "193048.790000", "193048.792000", "193048.795000", "193048.797000", "193048.800000", "193048.802000", "193048.805000", "193048.807000", "193048.810000", "193048.813000", "193048.815000", "193048.818000", "193048.821000", "193048.824000", "193048.826000", "193048.829000", "193048.832000", "193048.835000", "193048.837000", "193048.840000", "193048.842000", "193048.845000", "193048.847000", "193048.850000", "193048.852000", "193048.855000", "193048.857000", "193048.860000", "193048.863000", "193048.865000", "193048.868000", "193048.870000", "193048.873000", "193048.875000", "193048.878000", "193048.880000", "193048.883000", "193108.681000", "193108.684000", "193108.688000", "193108.691000", "193108.694000", "193108.696000", "193108.699000", "193108.702000", "193108.704000", "193108.707000", "193108.710000", "193108.713000", "193108.715000", "193108.718000", "193108.721000", "193108.723000", "193108.726000", "193108.728000", "193108.731000", "193108.733000", "193128.647000", "193128.649000", "193128.652000", "193128.655000", "193128.657000", "193128.660000", "193128.662000", "193128.665000", "193128.667000", "193128.670000", "193128.672000", "193128.675000", "193128.678000", "193128.680000", "193128.683000", "193128.686000", "193128.688000", "193128.691000", "193128.693000", "193128.696000", "193148.663000", "193148.665000", "193148.668000", "193148.670000", "193148.673000", "193148.676000", "193148.678000", "193148.681000", "193148.683000", "193148.686000", "193148.688000", "193148.691000", "193148.693000", "193148.696000", "193148.698000", "193148.701000", "193148.703000", "193148.706000", "193148.708000", "193148.711000", "193228.682000", "193228.685000", "193228.687000", "193228.690000", "193228.692000", "193228.695000", "193228.697000", "193228.700000", "193228.703000", "193228.706000", "193228.708000", "193228.711000", "193228.713000", "193228.716000", "193228.718000", "193228.721000", "193228.723000", "193228.726000", "193228.728000", "193228.731000", "193228.734000", "193228.736000", "193228.739000", "193228.741000", "193228.744000", "193228.746000", "193228.749000", "193308.673000", "193308.676000", "193308.679000", "193308.681000", "193308.684000", "193308.686000", "193308.689000", "193308.691000", "193308.694000", "193308.696000", "193308.699000", "193308.701000", "193308.704000", "193308.707000", "193308.709000", "193308.712000", "193308.714000", "193308.717000", "193308.719000", "193308.722000", "193308.724000", "193308.727000", "193308.729000", "193308.732000", "193308.734000", "193308.737000", "193308.739000", "193348.715000", "193348.718000", "193348.721000", "193348.723000", "193348.726000", "193348.728000", "193348.731000", "193348.733000", "193348.736000", "193348.738000", "193348.741000", "193348.744000", "193348.746000", "193348.749000", "193348.751000", "193348.754000", "193348.756000", "193348.759000", "193348.761000", "193348.764000", "193348.767000", "193348.809000", "193348.811000", "193348.814000", "193348.816000", "193348.819000", "193348.821000", "193428.682000", "193428.685000", "193428.688000", "193428.690000", "193428.693000", "193428.695000", "193428.698000", "193428.700000", "193428.703000", "193428.706000", "193428.708000", "193428.711000", "193428.713000", "193428.716000", "193428.718000", "193428.721000", "193428.723000", "193428.726000", "193428.729000", "193428.731000", "193428.734000", "193428.736000", "193428.739000", "193428.741000", "193428.744000", "193428.746000", "193428.749000", "193508.668000", "193508.671000", "193508.673000", "193508.676000", "193508.678000", "193508.681000", "193508.684000", "193508.686000", "193508.689000", "193508.691000", "193508.694000", "193508.696000", "193508.699000", "193508.701000", "193508.704000", "193508.706000", "193508.709000", "193508.711000", "193508.714000", "193508.717000", "193508.719000", "193508.722000", "193508.725000", "193508.727000", "193508.730000", "193508.733000", "193508.735000", "193548.677000", "193548.680000", "193548.682000", "193548.685000", "193548.687000", "193548.690000", "193548.692000", "193548.695000", "193548.697000", "193548.700000", "193548.702000", "193548.705000", "193548.707000", "193548.710000", "193548.713000", "193548.715000", "193548.718000", "193548.720000", "193548.723000", "193548.726000", "193548.728000", "193548.746000", "193548.748000", "193548.751000", "193548.754000", "193548.756000", "193548.762000", "193628.717000", "193628.720000", "193628.723000", "193628.725000", "193628.728000", "193628.730000", "193628.733000", "193628.736000", "193628.738000", "193628.741000", "193628.744000", "193628.747000", "193628.749000", "193628.752000", "193628.754000", "193628.757000", "193628.760000", "193628.762000", "193628.765000", "193628.767000", "193628.825000", "193628.828000", "193628.830000", "193628.833000", "193628.835000", "193628.838000", "193708.687000", "193708.689000", "193708.692000", "193708.695000", "193708.697000", "193708.700000", "193708.702000", "193708.705000", "193708.707000", "193708.710000", "193708.712000", "193708.715000", "193708.717000", "193708.720000", "193708.723000", "193708.725000", "193708.728000", "193708.730000", "193708.733000", "193708.735000", "193708.738000", "193708.740000", "193708.743000", "193708.745000", "193708.748000", "193708.751000", "193708.753000", "193748.690000", "193748.693000", "193748.695000", "193748.698000", "193748.706000", "193748.709000", "193748.712000", "193748.714000", "193748.717000", "193748.719000", "193748.722000", "193748.724000", "193748.727000", "193748.729000", "193748.732000", "193748.734000", "193748.737000", "193748.740000", "193748.742000", "193748.745000", "193748.747000", "193748.750000", "193748.752000", "193748.755000", "193748.757000", "193748.760000", "193748.763000", "193828.687000", "193828.689000", "193828.692000", "193828.695000", "193828.697000", "193828.700000", "193828.702000", "193828.705000", "193828.707000", "193828.710000", "193828.712000", "193828.715000", "193828.717000", "193828.720000", "193828.723000", "193828.725000", "193828.728000", "193828.730000", "193828.733000", "193828.735000", "193828.738000", "193828.740000", "193828.743000", "193828.745000", "193828.748000", "193828.750000", "193828.753000", "193908.678000", "193908.680000", "193908.683000", "193908.686000", "193908.688000", "193908.691000", "193908.693000", "193908.696000", "193908.698000", "193908.701000", "193908.703000", "193908.706000", "193908.708000", "193908.711000", "193908.713000", "193908.716000", "193908.719000", "193908.721000", "193908.724000", "193908.726000", "193908.729000", "193908.731000", "193908.734000", "193908.736000", "193908.739000", "193908.742000", "193908.744000", "193948.680000", "193948.683000", "193948.685000", "193948.688000", "193948.690000", "193948.693000", "193948.696000", "193948.698000", "193948.701000", "193948.703000", "193948.706000", "193948.708000", "193948.711000", "193948.713000", "193948.716000", "193948.718000", "193948.721000", "193948.723000", "193948.726000", "193948.728000", "193948.731000", "193948.733000", "193948.736000", "193948.739000", "193948.741000", "193948.744000", "193948.746000", "194028.712000", "194028.715000", "194028.717000", "194028.720000", "194028.722000", "194028.725000", "194028.728000", "194028.730000", "194028.733000", "194028.735000", "194028.738000", "194028.740000", "194028.743000", "194028.745000", "194028.748000", "194028.751000", "194028.753000", "194028.756000", "194028.758000", "194028.761000", "194028.763000", "194028.766000", "194028.838000", "194028.841000", "194028.843000", "194028.846000", "194108.674000", "194108.677000", "194108.679000", "194108.682000", "194108.684000", "194108.687000", "194108.689000", "194108.692000", "194108.694000", "194108.697000", "194108.699000", "194108.702000", "194108.705000", "194108.707000", "194108.710000", "194108.712000", "194108.715000", "194108.718000", "194108.720000", "194108.723000", "194108.725000", "194108.728000", "194108.730000", "194108.733000", "194108.736000", "194108.738000", "194108.741000", "194148.676000", "194148.679000", "194148.681000", "194148.684000", "194148.687000", "194148.689000", "194148.692000", "194148.694000", "194148.697000", "194148.699000", "194148.702000", "194148.704000", "194148.707000", "194148.710000", "194148.712000", "194148.715000", "194148.717000", "194148.720000", "194148.722000", "194148.725000", "194148.727000", "194148.730000", "194148.733000", "194148.735000", "194148.738000", "194148.740000", "194148.743000", "194228.686000", "194228.689000", "194228.691000", "194228.694000", "194228.697000", "194228.699000", "194228.702000", "194228.704000", "194228.707000", "194228.709000", "194228.712000", "194228.714000", "194228.717000", "194228.720000", "194228.722000", "194228.725000", "194228.727000", "194228.730000", "194228.732000", "194228.735000", "194228.738000", "194228.740000", "194228.743000", "194228.745000", "194228.748000", "194228.750000", "194228.753000", "194308.672000", "194308.674000", "194308.677000", "194308.680000", "194308.682000", "194308.685000", "194308.687000", "194308.690000", "194308.692000", "194308.695000", "194308.697000", "194308.700000", "194308.702000", "194308.705000", "194308.707000", "194308.710000", "194308.713000", "194308.715000", "194308.718000", "194308.720000", "194308.723000", "194308.725000", "194308.728000", "194308.730000", "194308.733000", "194308.736000", "194308.738000", "194348.680000", "194348.683000", "194348.686000", "194348.688000", "194348.691000", "194348.693000", "194348.696000", "194348.699000", "194348.701000", "194348.704000", "194348.706000", "194348.709000", "194348.711000", "194348.714000", "194348.716000", "194348.719000", "194348.721000", "194348.724000", "194348.727000", "194348.729000", "194348.732000", "194348.734000", "194348.737000", "194348.739000", "194348.742000", "194348.744000", "194348.747000", "194353.649000", "194353.652000", "194353.654000"],
