{
  "AcquisitionMatrixPE": 104,
  "AcquisitionNumber": 1,
  "AcquisitionTime": "11:54:21.737500",
  "BandwidthPerPixelPhaseEncode": 17.17,
  "BaseResolution": 104,
  "BodyPartExamined": "BRAIN",
  "CoilCombinationMethod": "Sum of Squares",
  "ConsistencyInfo": "N4_VE11C_LATEST_20160120",
  "ConversionSoftware": "dcm2niix",
  "ConversionSoftwareVersion": "v1.0.20220505",
  "DerivedVendorReportedEchoSpacing": 0.000560011,
  "DeviceSerialNumber": "167006",
  "DwellTime": 2.1e-06,
  "EchoTime": 0.037,
  "EchoTime1": 0.037,
  "EchoTime2": 0.001,
  "EchoTrainLength": 104,
  "EffectiveEchoSpacing": 0.000560011,
  "FlipAngle": 52,
  "HeudiconvVersion": "0.5.3.post811+g6206e14",
  "ImageComments": "Unaliased MB4/PE3/LB",
  "ImageOrientationPatientDICOM": [0.995908, 0.0837967, 0.033846, -0.0682435, 0.942825, -0.326226],
  "ImageOrientationText": "Tra>Cor(-18.9)>Sag(3.4)",
  "ImageType": [
    "ORIGINAL",
    "PRIMARY",
    "P",
    "MB",
    "ND",
    "MOSAIC",
    "PHASE"
],
  "ImagingFrequency": 123.259,
  "InPlanePhaseEncodingDirectionDICOM": "COL",
  "InstitutionAddress": "Chemin Queen-Mary 4565,Montreal,District,CA,H3W 1W5",
  "InstitutionName": "IUGM",
  "InstitutionalDepartmentName": "Department",
  "MRAcquisitionType": "2D",
  "MagneticFieldStrength": 3,
  "Manufacturer": "Siemens",
  "ManufacturersModelName": "Prisma_fit",
  "MatrixCoilMode": "SENSE",
  "Modality": "MR",
  "MultibandAccelerationFactor": 4,
  "PartialFourier": 1,
  "PatientPosition": "HFS",
  "PercentPhaseFOV": 100,
  "PercentSampling": 100,
  "PhaseEncodingDirection": "j",
  "PhaseEncodingSteps": 104,
  "PhaseResolution": 1,
  "PixelBandwidth": 2290,
  "ProcedureStepDescription": "games^mario3",
  "ProtocolName": "func_task-mario3_run-03",
  "PulseSequenceDetails": "%CustomerSeq%\\cmrr_mbep2d_bold",
  "ReceiveCoilActiveElements": "HC1-7;NC1,2",
  "ReceiveCoilName": "HeadNeck_64",
  "ReconMatrixPE": 104,
  "RepetitionTime": 1.49,
  "SAR": 0.0639742,
  "ScanOptions": "FS",
  "ScanningSequence": "EP",
  "SequenceName": "epfid2d1_104",
  "SequenceVariant": "SK\\SS",
  "SeriesDescription": "func_task-mario3_run-03",
  "SeriesNumber": 17,
  "ShimSetting": [609, -7232, -8785, 638, 135, -30, -73, 63],
  "SliceThickness": 2,
  "SliceTiming": [0, 0.785, 0.1, 0.8825, 0.1975, 0.98, 0.295, 1.08, 0.3925, 1.1775, 0.49, 1.275, 0.59, 1.3725, 0.6875, 0, 0.785, 0.1, 0.8825, 0.1975, 0.98, 0.295, 1.08, 0.3925, 1.1775, 0.49, 1.275, 0.59, 1.3725, 0.6875, 0, 0.785, 0.1, 0.8825, 0.1975, 0.98, 0.295, 1.08, 0.3925, 1.1775, 0.49, 1.275, 0.59, 1.3725, 0.6875, 0, 0.785, 0.1, 0.8825, 0.1975, 0.98, 0.295, 1.08, 0.3925, 1.1775, 0.49, 1.275, 0.59, 1.3725, 0.6875],
  "SoftwareVersions": "syngo MR E11",
  "SpacingBetweenSlices": 2,
  "StationName": "MRC35049",
  "TaskName": "mario3",
  "TotalReadoutTime": 0.0576811,
  "TxRefAmp": 284.4,
  "WipMemBlock": "f4ea00e7-7c99-4a13-9c0b-d71d7c89b325||Sequence: R017 ve11c/master r/75a17815+; Jun 28 2022 16:32:11 by eja",
  "dcmmeta_affine": [
    [-1.9918158054351807, -0.13648700714111328, 0.11849506944417953, 109.96051025390625],
    [-0.16759347915649414, 1.8856505155563354, -0.6451622843742371, -60.42102813720703],
    [0.06769201159477234, 0.652451753616333, 1.8893715143203735, -57.60062789916992],
    [0.0, 0.0, 0.0, 1.0]
],
  "dcmmeta_reorient_transform": [
    [0.0, -1.0, 0.0, 103.0],
    [1.0, 0.0, 0.0, 0.0],
    [0.0, 0.0, 1.0, 0.0],
    [0.0, 0.0, 0.0, 1.0]
],
  "dcmmeta_shape": [104, 104, 60, 345],
  "dcmmeta_slice_dim": 2,
  "dcmmeta_version": 0.6,
  "global": {
    "const": {
      "AcquisitionMatrix": [104, 0, 0, 104],
      "AngioFlag": "N",
      "BitsAllocated": 16,
      "BitsStored": 16,
      "BodyPartExamined": "BRAIN",
      "Columns": 832,
      "EchoNumbers": 1,
      "EchoTime": 37.0,
      "EchoTrainLength": 104,
      "FlipAngle": 52.0,
      "HighBit": 15,
      "ImageOrientationPatient": [0.9959079042997, 0.08379674319296, 0.03384600395359, -0.068243504988, 0.94282528060147, -0.3262258639129],
      "ImagePositionPatient": [-771.24203427428, -881.18181139462, 222.45443855145],
      "ImageType": [
        "ORIGINAL",
        "PRIMARY",
        "P",
        "MB",
        "ND",
        "MOSAIC"
],
      "ImagedNucleus": "1H",
      "ImagingFrequency": 123.259305,
      "InPlanePhaseEncodingDirection": "COL",
      "LargestImagePixelValue": 4095,
      "MRAcquisitionType": "2D",
      "MagneticFieldStrength": 3.0,
      "Manufacturer": "SIEMENS",
      "ManufacturerModelName": "Prisma_fit",
      "Modality": "MR",
      "NumberOfAverages": 1.0,
      "NumberOfPhaseEncodingSteps": 104,
      "PercentPhaseFieldOfView": 100.0,
      "PercentSampling": 100.0,
      "PerformedProcedureStepStartTime": "113001.116000",
      "PhotometricInterpretation": "MONOCHROME2",
      "PixelBandwidth": 2290.0,
      "PixelRepresentation": 0,
      "PixelSpacing": [2.0, 2.0],
      "ProtocolName": "func_task-mario3_run-03",
      "RepetitionTime": 1490.0,
      "RescaleIntercept": -4096.0,
      "RescaleSlope": 2.0,
      "RescaleType": "US",
      "Rows": 832,
      "SAR": 0.06397418475045,
      "SamplesPerPixel": 1,
      "ScanOptions": "FS",
      "ScanningSequence": "EP",
      "SequenceName": "epfid2d1_104",
      "SequenceVariant": [
        "SK",
        "SS"
],
      "SeriesDescription": "func_task-mario3_run-03",
      "SeriesNumber": 17,
      "SeriesTime": "115544.944000",
      "SliceLocation": -28.40891674995,
      "SliceThickness": 2.0,
      "SmallestImagePixelValue": 0,
      "SoftwareVersions": "syngo MR E11",
      "SpacingBetweenSlices": 2.0000000158923,
      "SpecificCharacterSet": "ISO_IR 100",
      "StudyID": "1",
      "StudyTime": "113000.746000",
      "TransmitCoilName": "Body",
      "VariableFlipAngleFlag": "N",
      "WindowCenterWidthExplanation": "Algo1",
      "dBdt": 0.0},
    "slices": {}
  },
  "time": {
    "samples": {
      "AcquisitionNumber": [1, 2, 3, 4, 5, 6, 7, 8, 9, 10, 11, 12, 13, 14, 15, 16, 17, 18, 19, 20, 21, 22, 23, 24, 25, 26, 27, 28, 29, 30, 31, 32, 33, 34, 35, 36, 37, 38, 39, 40, 41, 42, 43, 44, 45, 46, 47, 48, 49, 50, 51, 52, 53, 54, 55, 56, 57, 58, 59, 60, 61, 62, 63, 64, 65, 66, 67, 68, 69, 70, 71, 72, 73, 74, 75, 76, 77, 78, 79, 80, 81, 82, 83, 84, 85, 86, 87, 88, 89, 90, 91, 92, 93, 94, 95, 96, 97, 98, 99, 100, 101, 102, 103, 104, 105, 106, 107, 108, 109, 110, 111, 112, 113, 114, 115, 116, 117, 118, 119, 120, 121, 122, 123, 124, 125, 126, 127, 128, 129, 130, 131, 132, 133, 134, 135, 136, 137, 138, 139, 140, 141, 142, 143, 144, 145, 146, 147, 148, 149, 150, 151, 152, 153, 154, 155, 156, 157, 158, 159, 160, 161, 162, 163, 164, 165, 166, 167, 168, 169, 170, 171, 172, 173, 174, 175, 176, 177, 178, 179, 180, 181, 182, 183, 184, 185, 186, 187, 188, 189, 190, 191, 192, 193, 194, 195, 196, 197, 198, 199, 200, 201, 202, 203, 204, 205, 206, 207, 208, 209, 210, 211, 212, 213, 214, 215, 216, 217, 218, 219, 220, 221, 222, 223, 224, 225, 226, 227, 228, 229, 230, 231, 232, 233, 234, 235, 236, 237, 238, 239, 240, 241, 242, 243, 244, 245, 246, 247, 248, 249, 250, 251, 252, 253, 254, 255, 256, 257, 258, 259, 260, 261, 262, 263, 264, 265, 266, 267, 268, 269, 270, 271, 272, 273, 274, 275, 276, 277, 278, 279, 280, 281, 282, 283, 284, 285, 286, 287, 288, 289, 290, 291, 292, 293, 294, 295, 296, 297, 298, 299, 300, 301, 302, 303, 304, 305, 306, 307, 308, 309, 310, 311, 312, 313, 314, 315, 316, 317, 318, 319, 320, 321, 322, 323, 324, 325, 326, 327, 328, 329, 330, 331, 332, 333, 334, 335, 336, 337, 338, 339, 340, 341, 342, 343, 344, 345],
      "AcquisitionTime": ["115421.737500", "115423.227500", "115424.717500", "115426.207500", "115427.697500", "115429.187500", "115430.677500", "115432.167500", "115433.657500", "115435.147500", "115436.637500", "115438.127500", "115439.617500", "115441.107500", "115442.597500", "115444.087500", "115445.577500", "115447.067500", "115448.557500", "115450.047500", "115451.537500", "115453.027500", "115454.517500", "115456.007500", "115457.497500", "115458.987500", "115500.477500", "115501.967500", "115503.457500", "115504.947500", "115506.437500", "115507.927500", "115509.417500", "115510.907500", "115512.397500", "115513.887500", "115515.377500", "115516.867500", "115518.357500", "115519.847500", "115521.337500", "115522.827500", "115524.317500", "115525.807500", "115527.297500", "115528.787500", "115530.277500", "115531.767500", "115533.257500", "115534.747500", "115536.237500", "115537.727500", "115539.217500", "115540.707500", "115542.197500", "115543.687500", "115545.177500", "115546.667500", "115548.157500", "115549.647500", "115551.137500", "115552.627500", "115554.117500", "115555.607500", "115557.097500", "115558.587500", "115600.077500", "115601.567500", "115603.057500", "115604.547500", "115606.037500", "115607.527500", "115609.017500", "115610.507500", "115611.997500", "115613.487500", "115614.977500", "115616.467500", "115617.957500", "115619.447500", "115620.937500", "115622.427500", "115623.917500", "115625.407500", "115626.897500", "115628.387500", "115629.877500", "115631.367500", "115632.857500", "115634.347500", "115635.837500", "115637.327500", "115638.817500", "115640.307500", "115641.797500", "115643.287500", "115644.777500", "115646.267500", "115647.757500", "115649.247500", "115650.737500", "115652.227500", "115653.717500", "115655.207500", "115656.697500", "115658.187500", "115659.677500", "115701.167500", "115702.657500", "115704.147500", "115705.637500", "115707.127500", "115708.617500", "115710.107500", "115711.597500", "115713.087500", "115714.577500", "115716.067500", "115717.557500", "115719.047500", "115720.537500", "115722.027500", "115723.517500", "115725.007500", "115726.497500", "115727.987500", "115729.477500", "115730.967500", "115732.457500", "115733.947500", "115735.437500", "115736.927500", "115738.417500", "115739.907500", "115741.397500", "115742.887500", "115744.377500", "115745.867500", "115747.357500", "115748.847500", "115750.337500", "115751.827500", "115753.317500", "115754.807500", "115756.297500", "115757.787500", "115759.277500", "115800.767500", "115802.257500", "115803.747500", "115805.237500", "115806.727500", "115808.217500", "115809.707500", "115811.197500", "115812.687500", "115814.177500", "115815.667500", "115817.157500", "115818.647500", "115820.137500", "115821.627500", "115823.117500", "115824.607500", "115826.097500", "115827.587500", "115829.077500", "115830.567500", "115832.057500", "115833.547500", "115835.037500", "115836.527500", "115838.017500", "115839.507500", "115840.997500", "115842.487500", "115843.977500", "115845.467500", "115846.957500", "115848.447500", "115849.937500", "115851.427500", "115852.917500", "115854.407500", "115855.897500", "115857.387500", "115858.877500", "115900.367500", "115901.857500", "115903.347500", "115904.837500", "115906.327500", "115907.817500", "115909.307500", "115910.797500", "115912.287500", "115913.777500", "115915.267500", "115916.757500", "115918.247500", "115919.737500", "115921.227500", "115922.717500", "115924.207500", "115925.697500", "115927.187500", "115928.677500", "115930.167500", "115931.657500", "115933.147500", "115934.637500", "115936.127500", "115937.617500", "115939.107500", "115940.597500", "115942.087500", "115943.577500", "115945.067500", "115946.557500", "115948.047500", "115949.537500", "115951.027500", "115952.517500", "115954.007500", "115955.497500", "115956.987500", "115958.477500", "115959.967500", "120001.457500", "120002.947500", "120004.437500", "120005.927500", "120007.417500", "120008.907500", "120010.397500", "120011.887500", "120013.377500", "120014.867500", "120016.357500", "120017.847500", "120019.337500", "120020.827500", "120022.317500", "120023.807500", "120025.297500", "120026.787500", "120028.277500", "120029.767500", "120031.257500", "120032.747500", "120034.237500", "120035.727500", "120037.217500", "120038.707500", "120040.197500", "120041.687500", "120043.177500", "120044.667500", "120046.157500", "120047.647500", "120049.137500", "120050.627500", "120052.117500", "120053.607500", "120055.097500", "120056.587500", "120058.077500", "120059.567500", "120101.057500", "120102.547500", "120104.037500", "120105.527500", "120107.017500", "120108.507500", "120109.997500", "120111.487500", "120112.977500", "120114.467500", "120115.957500", "120117.447500", "120118.937500", "120120.427500", "120121.917500", "120123.407500", "120124.897500", "120126.387500", "120127.877500", "120129.367500", "120130.857500", "120132.347500", "120133.837500", "120135.327500", "120136.817500", "120138.307500", "120139.797500", "120141.287500", "120142.777500", "120144.267500", "120145.757500", "120147.247500", "120148.737500", "120150.227500", "120151.717500", "120153.207500", "120154.697500", "120156.187500", "120157.677500", "120159.167500", "120200.657500", "120202.147500", "120203.637500", "120205.127500", "120206.617500", "120208.107500", "120209.597500", "120211.087500", "120212.577500", "120214.067500", "120215.557500", "120217.047500", "120218.537500", "120220.027500", "120221.517500", "120223.007500", "120224.497500", "120225.987500", "120227.477500", "120228.967500", "120230.457500", "120231.947500", "120233.437500", "120234.927500", "120236.417500", "120237.907500", "120239.397500", "120240.887500", "120242.377500", "120243.867500", "120245.357500", "120246.847500", "120248.337500", "120249.827500", "120251.317500", "120252.807500", "120254.297500"],
      "ContentTime": ["115544.946000", "115544.949000", "115544.951000", "115544.954000", "115544.956000", "115544.959000", "115544.961000", "115544.964000", "115544.966000", "115544.968000", "115544.971000", "115544.973000", "115544.976000", "115544.978000", "115544.981000", "115544.984000", "115544.987000", "115544.990000", "115544.992000", "115544.995000", "115544.998000", "115545.001000", "115545.003000", "115545.006000", "115545.009000", "115545.011000", "115545.013000", "115545.016000", "115545.023000", "115545.026000", "115545.028000", "115545.031000", "115545.033000", "115545.036000", "115604.498000", "115604.500000", "115604.503000", "115604.505000", "115604.508000", "115604.510000", "115604.513000", "115604.515000", "115604.523000", "115604.526000", "115604.528000", "115604.531000", "115604.533000", "115604.536000", "115604.538000", "115604.541000", "115604.543000", "115604.546000", "115604.548000", "115604.551000", "115624.492000", "115624.494000", "115624.497000", "115624.499000", "115624.502000", "115624.504000", "115624.507000", "115624.509000", "115624.512000", "115624.514000", "115624.517000", "115624.519000", "115624.521000", "115624.524000", "115624.526000", "115624.529000", "115624.531000", "115624.534000", "115624.536000", "115624.539000", "115644.478000", "115644.481000", "115644.483000", "115644.486000", "115644.488000", "115644.491000", "115644.493000", "115644.496000", "115644.498000", "115644.501000", "115644.503000", "115644.506000", "115644.508000", "115644.511000", "115644.513000", "115644.516000", "115644.518000", "115644.521000", "115644.523000", "115644.526000", "115724.526000", "115724.529000", "115724.531000", "115724.534000", "115724.536000", "115724.539000", "115724.541000", "115724.544000", "115724.546000", "115724.549000", "115724.551000", "115724.554000", "115724.556000", "115724.559000", "115724.561000", "115724.564000", "115724.567000", "115724.569000", "115724.572000", "115724.574000", "115724.577000", "115724.579000", "115724.582000", "115724.584000", "115724.587000", "115724.589000", "115724.592000", "115724.594000", "115804.522000", "115804.524000", "115804.527000", "115804.529000", "115804.532000", "115804.534000", "115804.537000", "115804.539000", "115804.542000", "115804.544000", "115804.547000", "115804.549000", "115804.552000", "115804.554000", "115804.557000", "115804.559000", "115804.562000", "115804.564000", "115804.567000", "115804.569000", "115804.572000", "115804.574000", "115804.577000", "115804.579000", "115804.582000", "115804.584000", "115804.587000", "115844.507000", "115844.510000", "115844.512000", "115844.515000", "115844.517000", "115844.520000", "115844.522000", "115844.525000", "115844.527000", "115844.530000", "115844.532000", "115844.535000", "115844.537000", "115844.540000", "115844.542000", "115844.545000", "115844.547000", "115844.550000", "115844.552000", "115844.555000", "115844.557000", "115844.560000", "115844.562000", "115844.565000", "115844.567000", "115844.570000", "115924.504000", "115924.506000", "115924.509000", "115924.512000", "115924.514000", "115924.517000", "115924.519000", "115924.530000", "115924.532000", "115924.535000", "115924.537000", "115924.540000", "115924.542000", "115924.545000", "115924.547000", "115924.550000", "115924.553000", "115924.555000", "115924.558000", "115924.560000", "115924.563000", "115924.565000", "115924.568000", "115924.570000", "115924.573000", "115924.575000", "115924.578000", "115944.450000", "115944.453000", "115944.455000", "115944.458000", "115944.460000", "115944.463000", "115944.465000", "115944.468000", "115944.470000", "115944.473000", "115944.475000", "115944.477000", "115944.480000", "115944.482000", "120024.521000", "120024.523000", "120024.526000", "120024.528000", "120024.531000", "120024.533000", "120024.536000", "120024.538000", "120024.541000", "120024.543000", "120024.546000", "120024.548000", "120024.551000", "120024.553000", "120024.556000", "120024.558000", "120024.561000", "120024.563000", "120024.566000", "120024.568000", "120024.571000", "120024.573000", "120024.576000", "120024.578000", "120024.581000", "120024.583000", "120024.586000", "120104.529000", "120104.532000", "120104.534000", "120104.537000", "120104.539000", "120104.542000", "120104.544000", "120104.547000", "120104.549000", "120104.552000", "120104.554000", "120104.557000", "120104.559000", "120104.562000", "120104.564000", "120104.567000", "120104.569000", "120104.572000", "120104.574000", "120104.577000", "120104.579000", "120104.582000", "120104.584000", "120104.587000", "120104.589000", "120104.592000", "120144.531000", "120144.534000", "120144.537000", "120144.539000", "120144.542000", "120144.544000", "120144.546000", "120144.549000", "120144.551000", "120144.555000", "120144.558000", "120144.560000", "120144.563000", "120144.565000", "120144.568000", "120144.570000", "120144.573000", "120144.575000", "120144.578000", "120144.580000", "120144.583000", "120144.585000", "120144.588000", "120144.590000", "120144.593000", "120144.595000", "120144.598000", "120224.522000", "120224.525000", "120224.528000", "120224.530000", "120224.533000", "120224.535000", "120224.538000", "120224.540000", "120224.543000", "120224.545000", "120224.548000", "120224.550000", "120224.552000", "120224.555000", "120224.557000", "120224.560000", "120224.562000", "120224.565000", "120224.567000", "120224.570000", "120224.573000", "120224.575000", "120224.578000", "120224.580000", "120224.583000", "120224.585000", "120224.588000", "120257.184000", "120257.187000", "120257.189000", "120257.192000", "120257.194000", "120257.197000", "120257.199000", "120257.202000", "120257.204000", "120257.207000", "120257.209000", "120257.212000", "120257.214000", "120257.217000", "120257.219000", "120257.222000", "120257.224000", "120257.227000", "120257.229000", "120257.232000", "120257.234000", "120257.237000"],
      "InstanceCreationTime": ["115544.946000", "115544.949000", "115544.951000", "115544.954000", "115544.956000", "115544.959000", "115544.961000", "115544.964000", "115544.966000", "115544.968000", "115544.971000", "115544.973000", "115544.976000", "115544.978000", "115544.981000", "115544.984000", "115544.987000", "115544.990000", "115544.992000", "115544.995000", "115544.998000", "115545.001000", "115545.003000", "115545.006000", "115545.009000", "115545.011000", "115545.013000", "115545.016000", "115545.023000", "115545.026000", "115545.028000", "115545.031000", "115545.033000", "115545.036000", "115604.498000", "115604.500000", "115604.503000", "115604.505000", "115604.508000", "115604.510000", "115604.513000", "115604.515000", "115604.523000", "115604.526000", "115604.528000", "115604.531000", "115604.533000", "115604.536000", "115604.538000", "115604.541000", "115604.543000", "115604.546000", "115604.548000", "115604.551000", "115624.492000", "115624.494000", "115624.497000", "115624.499000", "115624.502000", "115624.504000", "115624.507000", "115624.509000", "115624.512000", "115624.514000", "115624.517000", "115624.519000", "115624.521000", "115624.524000", "115624.526000", "115624.529000", "115624.531000", "115624.534000", "115624.536000", "115624.539000", "115644.478000", "115644.481000", "115644.483000", "115644.486000", "115644.488000", "115644.491000", "115644.493000", "115644.496000", "115644.498000", "115644.501000", "115644.503000", "115644.506000", "115644.508000", "115644.511000", "115644.513000", "115644.516000", "115644.518000", "115644.521000", "115644.523000", "115644.526000", "115724.526000", "115724.529000", "115724.531000", "115724.534000", "115724.536000", "115724.539000", "115724.541000", "115724.544000", "115724.546000", "115724.549000", "115724.551000", "115724.554000", "115724.556000", "115724.559000", "115724.561000", "115724.564000", "115724.567000", "115724.569000", "115724.572000", "115724.574000", "115724.577000", "115724.579000", "115724.582000", "115724.584000", "115724.587000", "115724.589000", "115724.592000", "115724.594000", "115804.522000", "115804.524000", "115804.527000", "115804.529000", "115804.532000", "115804.534000", "115804.537000", "115804.539000", "115804.542000", "115804.544000", "115804.547000", "115804.549000", "115804.552000", "115804.554000", "115804.557000", "115804.559000", "115804.562000", "115804.564000", "115804.567000", "115804.569000", "115804.572000", "115804.574000", "115804.577000", "115804.579000", "115804.582000", "115804.584000", "115804.587000", "115844.507000", "115844.510000", "115844.512000", "115844.515000", "115844.517000", "115844.520000", "115844.522000", "115844.525000", "115844.527000", "115844.530000", "115844.532000", "115844.535000", "115844.537000", "115844.540000", "115844.542000", "115844.545000", "115844.547000", "115844.550000", "115844.552000", "115844.555000", "115844.557000", "115844.560000", "115844.562000", "115844.565000", "115844.567000", "115844.570000", "115924.504000", "115924.506000", "115924.509000", "115924.512000", "115924.514000", "115924.517000", "115924.519000", "115924.530000", "115924.532000", "115924.535000", "115924.537000", "115924.540000", "115924.542000", "115924.545000", "115924.547000", "115924.550000", "115924.553000", "115924.555000", "115924.558000", "115924.560000", "115924.563000", "115924.565000", "115924.568000", "115924.570000", "115924.573000", "115924.575000", "115924.578000", "115944.450000", "115944.453000", "115944.455000", "115944.458000", "115944.460000", "115944.463000", "115944.465000", "115944.468000", "115944.470000", "115944.473000", "115944.475000", "115944.477000", "115944.480000", "115944.482000", "120024.521000", "120024.523000", "120024.526000", "120024.528000", "120024.531000", "120024.533000", "120024.536000", "120024.538000", "120024.541000", "120024.543000", "120024.546000", "120024.548000", "120024.551000", "120024.553000", "120024.556000", "120024.558000", "120024.561000", "120024.563000", "120024.566000", "120024.568000", "120024.571000", "120024.573000", "120024.576000", "120024.578000", "120024.581000", "120024.583000", "120024.586000", "120104.529000", "120104.532000", "120104.534000", "120104.537000", "120104.539000", "120104.542000", "120104.544000", "120104.547000", "120104.549000", "120104.552000", "120104.554000", "120104.557000", "120104.559000", "120104.562000", "120104.564000", "120104.567000", "120104.569000", "120104.572000", "120104.574000", "120104.577000", "120104.579000", "120104.582000", "120104.584000", "120104.587000", "120104.589000", "120104.592000", "120144.531000", "120144.534000", "120144.537000", "120144.539000", "120144.542000", "120144.544000", "120144.546000", "120144.549000", "120144.551000", "120144.555000", "120144.558000", "120144.560000", "120144.563000", "120144.565000", "120144.568000", "120144.570000", "120144.573000", "120144.575000", "120144.578000", "120144.580000", "120144.583000", "120144.585000", "120144.588000", "120144.590000", "120144.593000", "120144.595000", "120144.598000", "120224.522000", "120224.525000", "120224.528000", "120224.530000", "120224.533000", "120224.535000", "120224.538000", "120224.540000", "120224.543000", "120224.545000", "120224.548000", "120224.550000", "120224.552000", "120224.555000", "120224.557000", "120224.560000", "120224.562000", "120224.565000", "120224.567000", "120224.570000", "120224.573000", "120224.575000", "120224.578000", "120224.580000", "120224.583000", "120224.585000", "120224.588000", "120257.184000", "120257.187000", "120257.189000", "120257.192000", "120257.194000", "120257.197000", "120257.199000", "120257.202000", "120257.204000", "120257.207000", "120257.209000", "120257.212000", "120257.214000", "120257.217000", "120257.219000", "120257.222000", "120257.224000", "120257.227000", "120257.229000", "120257.232000", "120257.234000", "120257.237000"],
      "InstanceNumber": [1, 2, 3, 4, 5, 6, 7, 8, 9, 10, 11, 12, 13, 14, 15, 16, 17, 18, 19, 20, 21, 22, 23, 24, 25, 26, 27, 28, 29, 30, 31, 32, 33, 34, 35, 36, 37, 38, 39, 40, 41, 42, 43, 44, 45, 46, 47, 48, 49, 50, 51, 52, 53, 54, 55, 56, 57, 58, 59, 60, 61, 62, 63, 64, 65, 66, 67, 68, 69, 70, 71, 72, 73, 74, 75, 76, 77, 78, 79, 80, 81, 82, 83, 84, 85, 86, 87, 88, 89, 90, 91, 92, 93, 94, 95, 96, 97, 98, 99, 100, 101, 102, 103, 104, 105, 106, 107, 108, 109, 110, 111, 112, 113, 114, 115, 116, 117, 118, 119, 120, 121, 122, 123, 124, 125, 126, 127, 128, 129, 130, 131, 132, 133, 134, 135, 136, 137, 138, 139, 140, 141, 142, 143, 144, 145, 146, 147, 148, 149, 150, 151, 152, 153, 154, 155, 156, 157, 158, 159, 160, 161, 162, 163, 164, 165, 166, 167, 168, 169, 170, 171, 172, 173, 174, 175, 176, 177, 178, 179, 180, 181, 182, 183, 184, 185, 186, 187, 188, 189, 190, 191, 192, 193, 194, 195, 196, 197, 198, 199, 200, 201, 202, 203, 204, 205, 206, 207, 208, 209, 210, 211, 212, 213, 214, 215, 216, 217, 218, 219, 220, 221, 222, 223, 224, 225, 226, 227, 228, 229, 230, 231, 232, 233, 234, 235, 236, 237, 238, 239, 240, 241, 242, 243, 244, 245, 246, 247, 248, 249, 250, 251, 252, 253, 254, 255, 256, 257, 258, 259, 260, 261, 262, 263, 264, 265, 266, 267, 268, 269, 270, 271, 272, 273, 274, 275, 276, 277, 278, 279, 280, 281, 282, 283, 284, 285, 286, 287, 288, 289, 290, 291, 292, 293, 294, 295, 296, 297, 298, 299, 300, 301, 302, 303, 304, 305, 306, 307, 308, 309, 310, 311, 312, 313, 314, 315, 316, 317, 318, 319, 320, 321, 322, 323, 324, 325, 326, 327, 328, 329, 330, 331, 332, 333, 334, 335, 336, 337, 338, 339, 340, 341, 342, 343, 344, 345],
      "WindowCenter": [4830.0, 4832.0, 4810.0, 4830.0, 4806.0, 4806.0, 4830.0, 4832.0, 4834.0, 4808.0, 4808.0, 4804.0, 4806.0, 4810.0, 4832.0, 4832.0, 4808.0, 4836.0, 4808.0, 4830.0, 4806.0, 4804.0, 4830.0, 4834.0, 4806.0, 4834.0, 4834.0, 4834.0, 4836.0, 4808.0, 4832.0, 4808.0, 4808.0, 4806.0, 4832.0, 4810.0, 4830.0, 4836.0, 4834.0, 4810.0, 4810.0, 4808.0, 4832.0, 4808.0, 4808.0, 4804.0, 4830.0, 4808.0, 4832.0, 4830.0, 4830.0, 4834.0, 4808.0, 4810.0, 4810.0, 4810.0, 4808.0, 4808.0, 4808.0, 4810.0, 4810.0, 4808.0, 4806.0, 4810.0, 4808.0, 4808.0, 4806.0, 4808.0, 4810.0, 4808.0, 4808.0, 4810.0, 4814.0, 4832.0, 4806.0, 4812.0, 4806.0, 4812.0, 4806.0, 4808.0, 4812.0, 4810.0, 4806.0, 4810.0, 4806.0, 4808.0, 4812.0, 4810.0, 4806.0, 4806.0, 4808.0, 4806.0, 4808.0, 4808.0, 4808.0, 4808.0, 4806.0, 4834.0, 4808.0, 4804.0, 4808.0, 4808.0, 4806.0, 4812.0, 4808.0, 4808.0, 4806.0, 4812.0, 4832.0, 4806.0, 4808.0, 4810.0, 4806.0, 4804.0, 4810.0, 4808.0, 4810.0, 4806.0, 4810.0, 4806.0, 4808.0, 4804.0, 4810.0, 4810.0, 4832.0, 4808.0, 4810.0, 4804.0, 4810.0, 4808.0, 4808.0, 4808.0, 4808.0, 4810.0, 4804.0, 4810.0, 4806.0, 4836.0, 4808.0, 4806.0, 4806.0, 4808.0, 4812.0, 4842.0, 4838.0, 4840.0, 4836.0, 4808.0, 4834.0, 4808.0, 4808.0, 4810.0, 4810.0, 4812.0, 4810.0, 4812.0, 4810.0, 4812.0, 4814.0, 4810.0, 4808.0, 4812.0, 4810.0, 4808.0, 4812.0, 4808.0, 4808.0, 4808.0, 4806.0, 4806.0, 4806.0, 4806.0, 4808.0, 4808.0, 4804.0, 4808.0, 4808.0, 4808.0, 4810.0, 4810.0, 4808.0, 4806.0, 4806.0, 4804.0, 4806.0, 4810.0, 4806.0, 4806.0, 4804.0, 4808.0, 4806.0, 4808.0, 4806.0, 4804.0, 4804.0, 4808.0, 4808.0, 4804.0, 4806.0, 4810.0, 4806.0, 4808.0, 4806.0, 4808.0, 4806.0, 4808.0, 4808.0, 4804.0, 4802.0, 4806.0, 4808.0, 4806.0, 4808.0, 4808.0, 4806.0, 4810.0, 4808.0, 4802.0, 4808.0, 4810.0, 4808.0, 4808.0, 4810.0, 4810.0, 4804.0, 4804.0, 4806.0, 4804.0, 4808.0, 4806.0, 4810.0, 4806.0, 4804.0, 4804.0, 4806.0, 4806.0, 4804.0, 4808.0, 4808.0, 4810.0, 4808.0, 4806.0, 4806.0, 4808.0, 4806.0, 4804.0, 4806.0, 4804.0, 4806.0, 4804.0, 4804.0, 4806.0, 4810.0, 4808.0, 4810.0, 4806.0, 4806.0, 4804.0, 4804.0, 4806.0, 4806.0, 4808.0, 4802.0, 4806.0, 4806.0, 4808.0, 4806.0, 4806.0, 4806.0, 4806.0, 4804.0, 4804.0, 4806.0, 4808.0, 4806.0, 4808.0, 4806.0, 4804.0, 4808.0, 4806.0, 4804.0, 4806.0, 4808.0, 4806.0, 4810.0, 4806.0, 4808.0, 4804.0, 4800.0, 4808.0, 4804.0, 4808.0, 4802.0, 4804.0, 4804.0, 4806.0, 4808.0, 4804.0, 4808.0, 4804.0, 4806.0, 4808.0, 4810.0, 4802.0, 4808.0, 4806.0, 4806.0, 4808.0, 4804.0, 4806.0, 4806.0, 4806.0, 4808.0, 4808.0, 4806.0, 4804.0, 4804.0, 4804.0, 4804.0, 4808.0, 4780.0, 4806.0, 4804.0, 4806.0, 4782.0, 4804.0, 4806.0, 4808.0, 4804.0, 4808.0, 4780.0, 4802.0, 4802.0, 4806.0, 4804.0, 4808.0, 4808.0, 4806.0, 4804.0, 4802.0, 4802.0, 4808.0, 4802.0, 4806.0, 4810.0],
