{
  "AcquisitionMatrixPE": 104,
  "AcquisitionNumber": 1,
  "AcquisitionTime": "11:44:4.800000",
  "BandwidthPerPixelPhaseEncode": 17.17,
  "BaseResolution": 104,
  "BodyPartExamined": "BRAIN",
  "CoilCombinationMethod": "Sum of Squares",
  "ConsistencyInfo": "N4_VE11C_LATEST_20160120",
  "ConversionSoftware": "dcm2niix",
  "ConversionSoftwareVersion": "v1.0.20220505",
  "DerivedVendorReportedEchoSpacing": 0.000560011,
  "DeviceSerialNumber": "167006",
  "DwellTime": 2.1e-06,
  "EchoTime": 0.037,
  "EchoTime1": 0.037,
  "EchoTime2": 0.001,
  "EchoTrainLength": 104,
  "EffectiveEchoSpacing": 0.000560011,
  "FlipAngle": 52,
  "HeudiconvVersion": "0.5.3.post811+g6206e14",
  "ImageComments": "Unaliased MB4/PE3/LB",
  "ImageOrientationPatientDICOM": [0.995908, 0.0837967, 0.033846, -0.0682435, 0.942825, -0.326226],
  "ImageOrientationText": "Tra>Cor(-18.9)>Sag(3.4)",
  "ImageType": [
    "ORIGINAL",
    "PRIMARY",
    "P",
    "MB",
    "ND",
    "MOSAIC",
    "PHASE"
],
  "ImagingFrequency": 123.259,
  "InPlanePhaseEncodingDirectionDICOM": "COL",
  "InstitutionAddress": "Chemin Queen-Mary 4565,Montreal,District,CA,H3W 1W5",
  "InstitutionName": "IUGM",
  "InstitutionalDepartmentName": "Department",
  "MRAcquisitionType": "2D",
  "MagneticFieldStrength": 3,
  "Manufacturer": "Siemens",
  "ManufacturersModelName": "Prisma_fit",
  "MatrixCoilMode": "SENSE",
  "Modality": "MR",
  "MultibandAccelerationFactor": 4,
  "PartialFourier": 1,
  "PatientPosition": "HFS",
  "PercentPhaseFOV": 100,
  "PercentSampling": 100,
  "PhaseEncodingDirection": "j",
  "PhaseEncodingSteps": 104,
  "PhaseResolution": 1,
  "PixelBandwidth": 2290,
  "ProcedureStepDescription": "games^mario3",
  "ProtocolName": "func_task-mario3_run-02",
  "PulseSequenceDetails": "%CustomerSeq%\\cmrr_mbep2d_bold",
  "ReceiveCoilActiveElements": "HC1-7;NC1,2",
  "ReceiveCoilName": "HeadNeck_64",
  "ReconMatrixPE": 104,
  "RepetitionTime": 1.49,
  "SAR": 0.0639742,
  "ScanOptions": "FS",
  "ScanningSequence": "EP",
  "SequenceName": "epfid2d1_104",
  "SequenceVariant": "SK\\SS",
  "SeriesDescription": "func_task-mario3_run-02",
  "SeriesNumber": 14,
  "ShimSetting": [609, -7232, -8785, 638, 135, -30, -73, 63],
  "SliceThickness": 2,
  "SliceTiming": [0, 0.7825, 0.0975, 0.88, 0.195, 0.98, 0.2925, 1.0775, 0.39, 1.175, 0.49, 1.2725, 0.5875, 1.37, 0.685, 0, 0.7825, 0.0975, 0.88, 0.195, 0.98, 0.2925, 1.0775, 0.39, 1.175, 0.49, 1.2725, 0.5875, 1.37, 0.685, 0, 0.7825, 0.0975, 0.88, 0.195, 0.98, 0.2925, 1.0775, 0.39, 1.175, 0.49, 1.2725, 0.5875, 1.37, 0.685, 0, 0.7825, 0.0975, 0.88, 0.195, 0.98, 0.2925, 1.0775, 0.39, 1.175, 0.49, 1.2725, 0.5875, 1.37, 0.685],
  "SoftwareVersions": "syngo MR E11",
  "SpacingBetweenSlices": 2,
  "StationName": "MRC35049",
  "TaskName": "mario3",
  "TotalReadoutTime": 0.0576811,
  "TxRefAmp": 284.4,
  "WipMemBlock": "136ac0c3-f54a-4533-80af-bcecd5ef653c||Sequence: R017 ve11c/master r/75a17815+; Jun 28 2022 16:32:11 by eja",
  "dcmmeta_affine": [
    [-1.9918158054351807, -0.13648700714111328, 0.11849506944417953, 109.96051025390625],
    [-0.16759347915649414, 1.8856505155563354, -0.6451622843742371, -60.42102813720703],
    [0.06769201159477234, 0.652451753616333, 1.8893715143203735, -57.60062789916992],
    [0.0, 0.0, 0.0, 1.0]
],
  "dcmmeta_reorient_transform": [
    [0.0, -1.0, 0.0, 103.0],
    [1.0, 0.0, 0.0, 0.0],
    [0.0, 0.0, 1.0, 0.0],
    [0.0, 0.0, 0.0, 1.0]
],
  "dcmmeta_shape": [104, 104, 60, 330],
  "dcmmeta_slice_dim": 2,
  "dcmmeta_version": 0.6,
  "global": {
    "const": {
      "AcquisitionMatrix": [104, 0, 0, 104],
      "AngioFlag": "N",
      "BitsAllocated": 16,
      "BitsStored": 16,
      "BodyPartExamined": "BRAIN",
      "Columns": 832,
      "EchoNumbers": 1,
      "EchoTime": 37.0,
      "EchoTrainLength": 104,
      "FlipAngle": 52.0,
      "HighBit": 15,
      "ImageOrientationPatient": [0.9959079042997, 0.08379674319296, 0.03384600395359, -0.068243504988, 0.94282528060147, -0.3262258639129],
      "ImagePositionPatient": [-771.24203427428, -881.18181139462, 222.45443855145],
      "ImageType": [
        "ORIGINAL",
        "PRIMARY",
        "P",
        "MB",
        "ND",
        "MOSAIC"
],
      "ImagedNucleus": "1H",
      "ImagingFrequency": 123.259303,
      "InPlanePhaseEncodingDirection": "COL",
      "LargestImagePixelValue": 4095,
      "MRAcquisitionType": "2D",
      "MagneticFieldStrength": 3.0,
      "Manufacturer": "SIEMENS",
      "ManufacturerModelName": "Prisma_fit",
      "Modality": "MR",
      "NumberOfAverages": 1.0,
      "NumberOfPhaseEncodingSteps": 104,
      "PercentPhaseFieldOfView": 100.0,
      "PercentSampling": 100.0,
      "PerformedProcedureStepStartTime": "113001.116000",
      "PhotometricInterpretation": "MONOCHROME2",
      "PixelBandwidth": 2290.0,
      "PixelRepresentation": 0,
      "PixelSpacing": [2.0, 2.0],
      "ProtocolName": "func_task-mario3_run-02",
      "RepetitionTime": 1490.0,
      "RescaleIntercept": -4096.0,
      "RescaleSlope": 2.0,
      "RescaleType": "US",
      "Rows": 832,
      "SAR": 0.06397418475045,
      "SamplesPerPixel": 1,
      "ScanOptions": "FS",
      "ScanningSequence": "EP",
      "SequenceName": "epfid2d1_104",
      "SequenceVariant": [
        "SK",
        "SS"
],
      "SeriesDescription": "func_task-mario3_run-02",
      "SeriesNumber": 14,
      "SeriesTime": "114518.309000",
      "SliceLocation": -28.40891674995,
      "SliceThickness": 2.0,
      "SmallestImagePixelValue": 0,
      "SoftwareVersions": "syngo MR E11",
      "SpacingBetweenSlices": 2.0000000158923,
      "SpecificCharacterSet": "ISO_IR 100",
      "StudyID": "1",
      "StudyTime": "113000.746000",
      "TransmitCoilName": "Body",
      "VariableFlipAngleFlag": "N",
      "WindowCenterWidthExplanation": "Algo1",
      "dBdt": 0.0},
    "slices": {}
  },
  "time": {
    "samples": {
      "AcquisitionNumber": [1, 2, 3, 4, 5, 6, 7, 8, 9, 10, 11, 12, 13, 14, 15, 16, 17, 18, 19, 20, 21, 22, 23, 24, 25, 26, 27, 28, 29, 30, 31, 32, 33, 34, 35, 36, 37, 38, 39, 40, 41, 42, 43, 44, 45, 46, 47, 48, 49, 50, 51, 52, 53, 54, 55, 56, 57, 58, 59, 60, 61, 62, 63, 64, 65, 66, 67, 68, 69, 70, 71, 72, 73, 74, 75, 76, 77, 78, 79, 80, 81, 82, 83, 84, 85, 86, 87, 88, 89, 90, 91, 92, 93, 94, 95, 96, 97, 98, 99, 100, 101, 102, 103, 104, 105, 106, 107, 108, 109, 110, 111, 112, 113, 114, 115, 116, 117, 118, 119, 120, 121, 122, 123, 124, 125, 126, 127, 128, 129, 130, 131, 132, 133, 134, 135, 136, 137, 138, 139, 140, 141, 142, 143, 144, 145, 146, 147, 148, 149, 150, 151, 152, 153, 154, 155, 156, 157, 158, 159, 160, 161, 162, 163, 164, 165, 166, 167, 168, 169, 170, 171, 172, 173, 174, 175, 176, 177, 178, 179, 180, 181, 182, 183, 184, 185, 186, 187, 188, 189, 190, 191, 192, 193, 194, 195, 196, 197, 198, 199, 200, 201, 202, 203, 204, 205, 206, 207, 208, 209, 210, 211, 212, 213, 214, 215, 216, 217, 218, 219, 220, 221, 222, 223, 224, 225, 226, 227, 228, 229, 230, 231, 232, 233, 234, 235, 236, 237, 238, 239, 240, 241, 242, 243, 244, 245, 246, 247, 248, 249, 250, 251, 252, 253, 254, 255, 256, 257, 258, 259, 260, 261, 262, 263, 264, 265, 266, 267, 268, 269, 270, 271, 272, 273, 274, 275, 276, 277, 278, 279, 280, 281, 282, 283, 284, 285, 286, 287, 288, 289, 290, 291, 292, 293, 294, 295, 296, 297, 298, 299, 300, 301, 302, 303, 304, 305, 306, 307, 308, 309, 310, 311, 312, 313, 314, 315, 316, 317, 318, 319, 320, 321, 322, 323, 324, 325, 326, 327, 328, 329, 330],
      "AcquisitionTime": ["114404.800000", "114406.290000", "114407.780000", "114409.270000", "114410.760000", "114412.250000", "114413.740000", "114415.230000", "114416.720000", "114418.210000", "114419.700000", "114421.190000", "114422.680000", "114424.170000", "114425.660000", "114427.150000", "114428.640000", "114430.130000", "114431.620000", "114433.110000", "114434.600000", "114436.090000", "114437.580000", "114439.070000", "114440.560000", "114442.050000", "114443.540000", "114445.030000", "114446.520000", "114448.010000", "114449.500000", "114450.990000", "114452.480000", "114453.970000", "114455.460000", "114456.950000", "114458.440000", "114459.930000", "114501.420000", "114502.910000", "114504.400000", "114505.890000", "114507.380000", "114508.870000", "114510.360000", "114511.850000", "114513.340000", "114514.830000", "114516.320000", "114517.810000", "114519.300000", "114520.790000", "114522.280000", "114523.770000", "114525.260000", "114526.750000", "114528.240000", "114529.730000", "114531.220000", "114532.710000", "114534.200000", "114535.690000", "114537.180000", "114538.670000", "114540.160000", "114541.650000", "114543.140000", "114544.630000", "114546.120000", "114547.610000", "114549.100000", "114550.590000", "114552.080000", "114553.570000", "114555.060000", "114556.550000", "114558.040000", "114559.530000", "114601.020000", "114602.510000", "114604.000000", "114605.490000", "114606.980000", "114608.470000", "114609.960000", "114611.450000", "114612.940000", "114614.430000", "114615.920000", "114617.410000", "114618.900000", "114620.390000", "114621.880000", "114623.370000", "114624.860000", "114626.350000", "114627.840000", "114629.330000", "114630.820000", "114632.310000", "114633.800000", "114635.290000", "114636.780000", "114638.270000", "114639.760000", "114641.250000", "114642.740000", "114644.230000", "114645.720000", "114647.210000", "114648.700000", "114650.190000", "114651.680000", "114653.170000", "114654.660000", "114656.150000", "114657.640000", "114659.130000", "114700.620000", "114702.110000", "114703.600000", "114705.090000", "114706.580000", "114708.070000", "114709.560000", "114711.050000", "114712.540000", "114714.030000", "114715.520000", "114717.010000", "114718.500000", "114719.990000", "114721.480000", "114722.970000", "114724.460000", "114725.950000", "114727.440000", "114728.930000", "114730.420000", "114731.910000", "114733.400000", "114734.890000", "114736.380000", "114737.870000", "114739.360000", "114740.850000", "114742.340000", "114743.830000", "114745.320000", "114746.810000", "114748.300000", "114749.790000", "114751.280000", "114752.770000", "114754.260000", "114755.750000", "114757.240000", "114758.730000", "114800.220000", "114801.710000", "114803.200000", "114804.690000", "114806.180000", "114807.670000", "114809.160000", "114810.650000", "114812.140000", "114813.630000", "114815.120000", "114816.610000", "114818.100000", "114819.590000", "114821.080000", "114822.570000", "114824.060000", "114825.550000", "114827.040000", "114828.530000", "114830.020000", "114831.510000", "114833.000000", "114834.490000", "114835.980000", "114837.470000", "114838.960000", "114840.450000", "114841.940000", "114843.430000", "114844.920000", "114846.410000", "114847.900000", "114849.390000", "114850.880000", "114852.370000", "114853.860000", "114855.350000", "114856.840000", "114858.330000", "114859.820000", "114901.310000", "114902.800000", "114904.290000", "114905.780000", "114907.270000", "114908.760000", "114910.250000", "114911.740000", "114913.230000", "114914.720000", "114916.210000", "114917.700000", "114919.190000", "114920.680000", "114922.170000", "114923.660000", "114925.150000", "114926.640000", "114928.130000", "114929.620000", "114931.110000", "114932.600000", "114934.090000", "114935.580000", "114937.070000", "114938.560000", "114940.050000", "114941.540000", "114943.030000", "114944.520000", "114946.010000", "114947.500000", "114948.990000", "114950.480000", "114951.970000", "114953.460000", "114954.950000", "114956.440000", "114957.930000", "114959.420000", "115000.910000", "115002.400000", "115003.890000", "115005.380000", "115006.870000", "115008.360000", "115009.850000", "115011.340000", "115012.830000", "115014.320000", "115015.810000", "115017.300000", "115018.790000", "115020.280000", "115021.770000", "115023.260000", "115024.750000", "115026.240000", "115027.730000", "115029.220000", "115030.710000", "115032.200000", "115033.690000", "115035.180000", "115036.670000", "115038.160000", "115039.650000", "115041.140000", "115042.630000", "115044.120000", "115045.610000", "115047.100000", "115048.590000", "115050.080000", "115051.570000", "115053.060000", "115054.550000", "115056.040000", "115057.530000", "115059.020000", "115100.510000", "115102.000000", "115103.490000", "115104.980000", "115106.470000", "115107.960000", "115109.450000", "115110.940000", "115112.430000", "115113.920000", "115115.410000", "115116.900000", "115118.390000", "115119.880000", "115121.370000", "115122.860000", "115124.350000", "115125.840000", "115127.330000", "115128.820000", "115130.310000", "115131.800000", "115133.290000", "115134.780000", "115136.270000", "115137.760000", "115139.250000", "115140.740000", "115142.230000", "115143.720000", "115145.210000", "115146.700000", "115148.190000", "115149.680000", "115151.170000", "115152.660000", "115154.150000", "115155.640000", "115157.130000", "115158.620000", "115200.110000", "115201.600000", "115203.090000", "115204.580000", "115206.070000", "115207.560000", "115209.050000", "115210.540000", "115212.030000", "115213.520000", "115215.010000"],
      "ContentTime": ["114518.311000", "114518.314000", "114518.317000", "114518.319000", "114518.322000", "114518.324000", "114518.327000", "114518.329000", "114518.331000", "114518.334000", "114518.336000", "114518.339000", "114518.341000", "114518.344000", "114518.346000", "114518.349000", "114518.351000", "114518.353000", "114518.356000", "114518.358000", "114518.361000", "114518.363000", "114518.366000", "114518.368000", "114518.371000", "114538.251000", "114538.254000", "114538.257000", "114538.259000", "114538.262000", "114538.264000", "114538.267000", "114538.269000", "114538.271000", "114538.274000", "114538.276000", "114538.279000", "114538.281000", "114538.284000", "114538.286000", "114538.289000", "114538.300000", "114538.303000", "114538.305000", "114538.308000", "114558.262000", "114558.265000", "114558.267000", "114558.270000", "114558.272000", "114558.275000", "114558.277000", "114558.280000", "114558.282000", "114558.285000", "114558.287000", "114558.290000", "114558.292000", "114558.294000", "114558.297000", "114558.299000", "114558.302000", "114558.304000", "114558.307000", "114558.309000", "114618.273000", "114618.275000", "114618.278000", "114618.280000", "114618.283000", "114618.285000", "114618.288000", "114618.290000", "114618.293000", "114618.295000", "114618.298000", "114618.300000", "114618.303000", "114618.305000", "114618.308000", "114618.310000", "114618.313000", "114618.315000", "114618.318000", "114618.320000", "114618.322000", "114658.303000", "114658.306000", "114658.309000", "114658.311000", "114658.313000", "114658.316000", "114658.318000", "114658.321000", "114658.323000", "114658.326000", "114658.328000", "114658.331000", "114658.333000", "114658.336000", "114658.338000", "114658.341000", "114658.343000", "114658.346000", "114658.348000", "114658.351000", "114658.353000", "114658.356000", "114658.358000", "114658.360000", "114658.363000", "114658.371000", "114658.373000", "114658.376000", "114658.378000", "114738.283000", "114738.286000", "114738.288000", "114738.291000", "114738.293000", "114738.302000", "114738.305000", "114738.307000", "114738.310000", "114738.312000", "114738.315000", "114738.317000", "114738.320000", "114738.322000", "114738.325000", "114738.327000", "114738.330000", "114738.333000", "114738.335000", "114738.337000", "114738.340000", "114738.342000", "114738.345000", "114738.347000", "114738.350000", "114738.352000", "114738.355000", "114818.296000", "114818.299000", "114818.302000", "114818.304000", "114818.307000", "114818.309000", "114818.312000", "114818.314000", "114818.317000", "114818.319000", "114818.322000", "114818.324000", "114818.327000", "114818.329000", "114818.332000", "114818.334000", "114818.337000", "114818.339000", "114818.341000", "114818.344000", "114818.347000", "114818.349000", "114818.352000", "114818.354000", "114818.357000", "114818.359000", "114818.361000", "114858.298000", "114858.301000", "114858.304000", "114858.306000", "114858.309000", "114858.311000", "114858.313000", "114858.316000", "114858.318000", "114858.321000", "114858.323000", "114858.326000", "114858.328000", "114858.331000", "114858.333000", "114858.336000", "114858.338000", "114858.341000", "114858.343000", "114858.346000", "114858.348000", "114858.351000", "114858.353000", "114858.356000", "114858.358000", "114858.361000", "114858.363000", "114938.272000", "114938.274000", "114938.277000", "114938.279000", "114938.282000", "114938.284000", "114938.287000", "114938.289000", "114938.292000", "114938.294000", "114938.297000", "114938.299000", "114938.302000", "114938.304000", "114938.307000", "114938.309000", "114938.312000", "114938.314000", "114938.317000", "114938.319000", "114938.322000", "114938.324000", "114938.327000", "114938.329000", "114938.332000", "114938.334000", "114938.337000", "114958.231000", "114958.233000", "114958.236000", "114958.238000", "114958.241000", "114958.244000", "114958.247000", "114958.249000", "114958.252000", "114958.254000", "114958.257000", "114958.259000", "114958.262000", "115038.290000", "115038.293000", "115038.295000", "115038.298000", "115038.301000", "115038.303000", "115038.305000", "115038.308000", "115038.310000", "115038.313000", "115038.315000", "115038.318000", "115038.320000", "115038.323000", "115038.325000", "115038.328000", "115038.331000", "115038.333000", "115038.336000", "115038.338000", "115038.341000", "115038.343000", "115038.346000", "115038.348000", "115038.351000", "115038.353000", "115038.356000", "115118.287000", "115118.290000", "115118.292000", "115118.295000", "115118.297000", "115118.300000", "115118.302000", "115118.305000", "115118.307000", "115118.310000", "115118.312000", "115118.315000", "115118.317000", "115118.320000", "115118.322000", "115118.324000", "115118.327000", "115118.329000", "115118.332000", "115118.334000", "115118.337000", "115118.339000", "115118.342000", "115118.344000", "115118.347000", "115118.349000", "115118.352000", "115158.283000", "115158.286000", "115158.288000", "115158.297000", "115158.299000", "115158.302000", "115158.304000", "115158.307000", "115158.309000", "115158.312000", "115158.314000", "115158.317000", "115158.319000", "115158.322000", "115158.324000", "115158.327000", "115158.330000", "115158.332000", "115158.335000", "115158.337000", "115158.340000", "115158.342000", "115158.345000", "115158.347000", "115158.350000", "115158.352000", "115158.355000", "115218.386000", "115218.388000", "115218.391000", "115218.394000", "115218.396000", "115218.399000", "115218.402000", "115218.404000", "115218.407000", "115218.410000", "115218.412000", "115218.415000", "115218.418000"],
      "InstanceCreationTime": ["114518.311000", "114518.314000", "114518.317000", "114518.319000", "114518.322000", "114518.324000", "114518.327000", "114518.329000", "114518.331000", "114518.334000", "114518.336000", "114518.339000", "114518.341000", "114518.344000", "114518.346000", "114518.349000", "114518.351000", "114518.353000", "114518.356000", "114518.358000", "114518.361000", "114518.363000", "114518.366000", "114518.368000", "114518.371000", "114538.251000", "114538.254000", "114538.257000", "114538.259000", "114538.262000", "114538.264000", "114538.267000", "114538.269000", "114538.271000", "114538.274000", "114538.276000", "114538.279000", "114538.281000", "114538.284000", "114538.286000", "114538.289000", "114538.300000", "114538.303000", "114538.305000", "114538.308000", "114558.262000", "114558.265000", "114558.267000", "114558.270000", "114558.272000", "114558.275000", "114558.277000", "114558.280000", "114558.282000", "114558.285000", "114558.287000", "114558.290000", "114558.292000", "114558.294000", "114558.297000", "114558.299000", "114558.302000", "114558.304000", "114558.307000", "114558.309000", "114618.273000", "114618.275000", "114618.278000", "114618.280000", "114618.283000", "114618.285000", "114618.288000", "114618.290000", "114618.293000", "114618.295000", "114618.298000", "114618.300000", "114618.303000", "114618.305000", "114618.308000", "114618.310000", "114618.313000", "114618.315000", "114618.318000", "114618.320000", "114618.322000", "114658.303000", "114658.306000", "114658.309000", "114658.311000", "114658.313000", "114658.316000", "114658.318000", "114658.321000", "114658.323000", "114658.326000", "114658.328000", "114658.331000", "114658.333000", "114658.336000", "114658.338000", "114658.341000", "114658.343000", "114658.346000", "114658.348000", "114658.351000", "114658.353000", "114658.356000", "114658.358000", "114658.360000", "114658.363000", "114658.371000", "114658.373000", "114658.376000", "114658.378000", "114738.283000", "114738.286000", "114738.288000", "114738.291000", "114738.293000", "114738.302000", "114738.305000", "114738.307000", "114738.310000", "114738.312000", "114738.315000", "114738.317000", "114738.320000", "114738.322000", "114738.325000", "114738.327000", "114738.330000", "114738.333000", "114738.335000", "114738.337000", "114738.340000", "114738.342000", "114738.345000", "114738.347000", "114738.350000", "114738.352000", "114738.355000", "114818.296000", "114818.299000", "114818.302000", "114818.304000", "114818.307000", "114818.309000", "114818.312000", "114818.314000", "114818.317000", "114818.319000", "114818.322000", "114818.324000", "114818.327000", "114818.329000", "114818.332000", "114818.334000", "114818.337000", "114818.339000", "114818.341000", "114818.344000", "114818.347000", "114818.349000", "114818.352000", "114818.354000", "114818.357000", "114818.359000", "114818.361000", "114858.298000", "114858.301000", "114858.304000", "114858.306000", "114858.309000", "114858.311000", "114858.313000", "114858.316000", "114858.318000", "114858.321000", "114858.323000", "114858.326000", "114858.328000", "114858.331000", "114858.333000", "114858.336000", "114858.338000", "114858.341000", "114858.343000", "114858.346000", "114858.348000", "114858.351000", "114858.353000", "114858.356000", "114858.358000", "114858.361000", "114858.363000", "114938.272000", "114938.274000", "114938.277000", "114938.279000", "114938.282000", "114938.284000", "114938.287000", "114938.289000", "114938.292000", "114938.294000", "114938.297000", "114938.299000", "114938.302000", "114938.304000", "114938.307000", "114938.309000", "114938.312000", "114938.314000", "114938.317000", "114938.319000", "114938.322000", "114938.324000", "114938.327000", "114938.329000", "114938.332000", "114938.334000", "114938.337000", "114958.231000", "114958.233000", "114958.236000", "114958.238000", "114958.241000", "114958.244000", "114958.247000", "114958.249000", "114958.252000", "114958.254000", "114958.257000", "114958.259000", "114958.262000", "115038.290000", "115038.293000", "115038.295000", "115038.298000", "115038.301000", "115038.303000", "115038.305000", "115038.308000", "115038.310000", "115038.313000", "115038.315000", "115038.318000", "115038.320000", "115038.323000", "115038.325000", "115038.328000", "115038.331000", "115038.333000", "115038.336000", "115038.338000", "115038.341000", "115038.343000", "115038.346000", "115038.348000", "115038.351000", "115038.353000", "115038.356000", "115118.287000", "115118.290000", "115118.292000", "115118.295000", "115118.297000", "115118.300000", "115118.302000", "115118.305000", "115118.307000", "115118.310000", "115118.312000", "115118.315000", "115118.317000", "115118.320000", "115118.322000", "115118.324000", "115118.327000", "115118.329000", "115118.332000", "115118.334000", "115118.337000", "115118.339000", "115118.342000", "115118.344000", "115118.347000", "115118.349000", "115118.352000", "115158.283000", "115158.286000", "115158.288000", "115158.297000", "115158.299000", "115158.302000", "115158.304000", "115158.307000", "115158.309000", "115158.312000", "115158.314000", "115158.317000", "115158.319000", "115158.322000", "115158.324000", "115158.327000", "115158.330000", "115158.332000", "115158.335000", "115158.337000", "115158.340000", "115158.342000", "115158.345000", "115158.347000", "115158.350000", "115158.352000", "115158.355000", "115218.386000", "115218.388000", "115218.391000", "115218.394000", "115218.396000", "115218.399000", "115218.402000", "115218.404000", "115218.407000", "115218.410000", "115218.412000", "115218.415000", "115218.418000"],
      "InstanceNumber": [1, 2, 3, 4, 5, 6, 7, 8, 9, 10, 11, 12, 13, 14, 15, 16, 17, 18, 19, 20, 21, 22, 23, 24, 25, 26, 27, 28, 29, 30, 31, 32, 33, 34, 35, 36, 37, 38, 39, 40, 41, 42, 43, 44, 45, 46, 47, 48, 49, 50, 51, 52, 53, 54, 55, 56, 57, 58, 59, 60, 61, 62, 63, 64, 65, 66, 67, 68, 69, 70, 71, 72, 73, 74, 75, 76, 77, 78, 79, 80, 81, 82, 83, 84, 85, 86, 87, 88, 89, 90, 91, 92, 93, 94, 95, 96, 97, 98, 99, 100, 101, 102, 103, 104, 105, 106, 107, 108, 109, 110, 111, 112, 113, 114, 115, 116, 117, 118, 119, 120, 121, 122, 123, 124, 125, 126, 127, 128, 129, 130, 131, 132, 133, 134, 135, 136, 137, 138, 139, 140, 141, 142, 143, 144, 145, 146, 147, 148, 149, 150, 151, 152, 153, 154, 155, 156, 157, 158, 159, 160, 161, 162, 163, 164, 165, 166, 167, 168, 169, 170, 171, 172, 173, 174, 175, 176, 177, 178, 179, 180, 181, 182, 183, 184, 185, 186, 187, 188, 189, 190, 191, 192, 193, 194, 195, 196, 197, 198, 199, 200, 201, 202, 203, 204, 205, 206, 207, 208, 209, 210, 211, 212, 213, 214, 215, 216, 217, 218, 219, 220, 221, 222, 223, 224, 225, 226, 227, 228, 229, 230, 231, 232, 233, 234, 235, 236, 237, 238, 239, 240, 241, 242, 243, 244, 245, 246, 247, 248, 249, 250, 251, 252, 253, 254, 255, 256, 257, 258, 259, 260, 261, 262, 263, 264, 265, 266, 267, 268, 269, 270, 271, 272, 273, 274, 275, 276, 277, 278, 279, 280, 281, 282, 283, 284, 285, 286, 287, 288, 289, 290, 291, 292, 293, 294, 295, 296, 297, 298, 299, 300, 301, 302, 303, 304, 305, 306, 307, 308, 309, 310, 311, 312, 313, 314, 315, 316, 317, 318, 319, 320, 321, 322, 323, 324, 325, 326, 327, 328, 329, 330],
      "WindowCenter": [4836.0, 4842.0, 4842.0, 4830.0, 4836.0, 4842.0, 4838.0, 4840.0, 4838.0, 4840.0, 4836.0, 4838.0, 4840.0, 4842.0, 4804.0, 4806.0, 4836.0, 4834.0, 4838.0, 4870.0, 4872.0, 4868.0, 4868.0, 4844.0, 4838.0, 4810.0, 4810.0, 4832.0, 4838.0, 4844.0, 4842.0, 4868.0, 4846.0, 4846.0, 4840.0, 4834.0, 4836.0, 4832.0, 4836.0, 4840.0, 4840.0, 4842.0, 4844.0, 4838.0, 4842.0, 4838.0, 4836.0, 4834.0, 4838.0, 4838.0, 4838.0, 4838.0, 4836.0, 4836.0, 4840.0, 4836.0, 4836.0, 4842.0, 4838.0, 4842.0, 4840.0, 4840.0, 4840.0, 4812.0, 4836.0, 4810.0, 4836.0, 4810.0, 4834.0, 4842.0, 4840.0, 4842.0, 4840.0, 4842.0, 4834.0, 4838.0, 4812.0, 4838.0, 4812.0, 4812.0, 4836.0, 4836.0, 4836.0, 4834.0, 4836.0, 4834.0, 4808.0, 4810.0, 4834.0, 4836.0, 4836.0, 4840.0, 4812.0, 4836.0, 4838.0, 4812.0, 4814.0, 4812.0, 4834.0, 4834.0, 4838.0, 4812.0, 4836.0, 4838.0, 4836.0, 4810.0, 4834.0, 4812.0, 4810.0, 4812.0, 4834.0, 4812.0, 4834.0, 4836.0, 4808.0, 4834.0, 4812.0, 4838.0, 4814.0, 4838.0, 4812.0, 4812.0, 4834.0, 4810.0, 4812.0, 4808.0, 4810.0, 4812.0, 4812.0, 4836.0, 4834.0, 4832.0, 4812.0, 4812.0, 4812.0, 4812.0, 4836.0, 4812.0, 4810.0, 4832.0, 4836.0, 4810.0, 4838.0, 4812.0, 4836.0, 4834.0, 4836.0, 4806.0, 4834.0, 4810.0, 4810.0, 4808.0, 4836.0, 4834.0, 4836.0, 4812.0, 4836.0, 4806.0, 4836.0, 4808.0, 4812.0, 4832.0, 4810.0, 4810.0, 4834.0, 4814.0, 4810.0, 4810.0, 4842.0, 4876.0, 4868.0, 4804.0, 4802.0, 4808.0, 4802.0, 4838.0, 4870.0, 4872.0, 4846.0, 4842.0, 4842.0, 4836.0, 4810.0, 4812.0, 4808.0, 4814.0, 4834.0, 4846.0, 4846.0, 4846.0, 4844.0, 4838.0, 4834.0, 4834.0, 4808.0, 4806.0, 4814.0, 4808.0, 4842.0, 4840.0, 4844.0, 4844.0, 4840.0, 4840.0, 4834.0, 4810.0, 4812.0, 4836.0, 4810.0, 4834.0, 4842.0, 4836.0, 4842.0, 4844.0, 4810.0, 4834.0, 4812.0, 4838.0, 4838.0, 4838.0, 4836.0, 4838.0, 4834.0, 4834.0, 4836.0, 4812.0, 4842.0, 4838.0, 4804.0, 4832.0, 4840.0, 4840.0, 4842.0, 4844.0, 4840.0, 4838.0, 4834.0, 4834.0, 4810.0, 4836.0, 4812.0, 4838.0, 4834.0, 4840.0, 4836.0, 4808.0, 4838.0, 4832.0, 4810.0, 4836.0, 4838.0, 4812.0, 4836.0, 4810.0, 4836.0, 4832.0, 4810.0, 4808.0, 4834.0, 4812.0, 4834.0, 4836.0, 4834.0, 4836.0, 4806.0, 4834.0, 4836.0, 4838.0, 4836.0, 4834.0, 4834.0, 4808.0, 4810.0, 4810.0, 4838.0, 4808.0, 4836.0, 4842.0, 4808.0, 4808.0, 4838.0, 4844.0, 4844.0, 4850.0, 4842.0, 4842.0, 4814.0, 4834.0, 4810.0, 4814.0, 4808.0, 4810.0, 4868.0, 4842.0, 4848.0, 4844.0, 4844.0, 4838.0, 4842.0, 4836.0, 4836.0, 4838.0, 4842.0, 4840.0, 4840.0, 4840.0, 4842.0, 4838.0, 4840.0, 4832.0, 4806.0, 4802.0, 4808.0, 4840.0, 4838.0, 4802.0, 4804.0, 4844.0, 4872.0, 4870.0, 4844.0, 4810.0, 4834.0, 4808.0, 4804.0, 4806.0, 4838.0, 4812.0, 4838.0, 4844.0],
