{
  "AcquisitionMatrixPE": 104,
  "AcquisitionNumber": 1,
  "AcquisitionTime": "11:33:43.275000",
  "BandwidthPerPixelPhaseEncode": 17.17,
  "BaseResolution": 104,
  "BodyPartExamined": "BRAIN",
  "CoilCombinationMethod": "Sum of Squares",
  "ConsistencyInfo": "N4_VE11C_LATEST_20160120",
  "ConversionSoftware": "dcm2niix",
  "ConversionSoftwareVersion": "v1.0.20220505",
  "DerivedVendorReportedEchoSpacing": 0.000560011,
  "DeviceSerialNumber": "167006",
  "DwellTime": 2.1e-06,
  "EchoTime": 0.037,
  "EchoTrainLength": 104,
  "EffectiveEchoSpacing": 0.000560011,
  "FlipAngle": 52,
  "HeudiconvVersion": "0.5.3.post811+g6206e14",
  "ImageComments": "Unaliased MB4/PE3/LB",
  "ImageOrientationPatientDICOM": [0.995908, 0.0837967, 0.033846, -0.0682435, 0.942825, -0.326226],
  "ImageOrientationText": "Tra>Cor(-18.9)>Sag(3.4)",
  "ImageType": [
    "ORIGINAL",
    "PRIMARY",
    "M",
    "MB",
    "ND",
    "MOSAIC"
],
  "ImagingFrequency": 123.259,
  "InPlanePhaseEncodingDirectionDICOM": "COL",
  "InstitutionAddress": "Chemin Queen-Mary 4565,Montreal,District,CA,H3W 1W5",
  "InstitutionName": "IUGM",
  "InstitutionalDepartmentName": "Department",
  "MRAcquisitionType": "2D",
  "MagneticFieldStrength": 3,
  "Manufacturer": "Siemens",
  "ManufacturersModelName": "Prisma_fit",
  "MatrixCoilMode": "SENSE",
  "Modality": "MR",
  "MultibandAccelerationFactor": 4,
  "PartialFourier": 1,
  "PatientPosition": "HFS",
  "PercentPhaseFOV": 100,
  "PercentSampling": 100,
  "PhaseEncodingDirection": "j",
  "PhaseEncodingSteps": 104,
  "PhaseResolution": 1,
  "PixelBandwidth": 2290,
  "ProcedureStepDescription": "games^mario3",
  "ProtocolName": "func_task-mario3_run-01",
  "PulseSequenceDetails": "%CustomerSeq%\\cmrr_mbep2d_bold",
  "ReceiveCoilActiveElements": "HC1-7;NC1,2",
  "ReceiveCoilName": "HeadNeck_64",
  "ReconMatrixPE": 104,
  "RepetitionTime": 1.49,
  "SAR": 0.0639742,
  "ScanOptions": "FS",
  "ScanningSequence": "EP",
  "SequenceName": "epfid2d1_104",
  "SequenceVariant": "SK\\SS",
  "SeriesDescription": "func_task-mario3_run-01",
  "SeriesNumber": 10,
  "ShimSetting": [609, -7232, -8785, 638, 135, -30, -73, 63],
  "SliceThickness": 2,
  "SliceTiming": [0, 0.785, 0.0975, 0.8825, 0.195, 0.98, 0.295, 1.0775, 0.3925, 1.175, 0.49, 1.275, 0.5875, 1.3725, 0.685, 0, 0.785, 0.0975, 0.8825, 0.195, 0.98, 0.295, 1.0775, 0.3925, 1.175, 0.49, 1.275, 0.5875, 1.3725, 0.685, 0, 0.785, 0.0975, 0.8825, 0.195, 0.98, 0.295, 1.0775, 0.3925, 1.175, 0.49, 1.275, 0.5875, 1.3725, 0.685, 0, 0.785, 0.0975, 0.8825, 0.195, 0.98, 0.295, 1.0775, 0.3925, 1.175, 0.49, 1.275, 0.5875, 1.3725, 0.685],
  "SoftwareVersions": "syngo MR E11",
  "SpacingBetweenSlices": 2,
  "StationName": "MRC35049",
  "TaskName": "mario3",
  "TotalReadoutTime": 0.0576811,
  "TxRefAmp": 284.4,
  "WipMemBlock": "a66ff378-9476-45f1-ab56-c66e1995dd9a||Sequence: R017 ve11c/master r/75a17815+; Jun 28 2022 16:32:11 by eja",
  "dcmmeta_affine": [
    [-1.9918158054351807, -0.13648700714111328, 0.11849506944417953, 109.96051025390625],
    [-0.16759347915649414, 1.8856505155563354, -0.6451622843742371, -60.42102813720703],
    [0.06769201159477234, 0.652451753616333, 1.8893715143203735, -57.60062789916992],
    [0.0, 0.0, 0.0, 1.0]
],
  "dcmmeta_reorient_transform": [
    [0.0, -1.0, 0.0, 103.0],
    [1.0, 0.0, 0.0, 0.0],
    [0.0, 0.0, 1.0, 0.0],
    [0.0, 0.0, 0.0, 1.0]
],
  "dcmmeta_shape": [104, 104, 60, 341],
  "dcmmeta_slice_dim": 2,
  "dcmmeta_version": 0.6,
  "global": {
    "const": {
      "AcquisitionMatrix": [104, 0, 0, 104],
      "AngioFlag": "N",
      "BitsAllocated": 16,
      "BitsStored": 16,
      "BodyPartExamined": "BRAIN",
      "Columns": 832,
      "EchoNumbers": 1,
      "EchoTime": 37.0,
      "EchoTrainLength": 104,
      "FlipAngle": 52.0,
      "HighBit": 15,
      "ImageOrientationPatient": [0.9959079042997, 0.08379674319296, 0.03384600395359, -0.068243504988, 0.94282528060147, -0.3262258639129],
      "ImagePositionPatient": [-771.24203427428, -881.18181139462, 222.45443855145],
      "ImageType": [
        "ORIGINAL",
        "PRIMARY",
        "M",
        "MB",
        "ND",
        "MOSAIC"
],
      "ImagedNucleus": "1H",
      "ImagingFrequency": 123.259294,
      "InPlanePhaseEncodingDirection": "COL",
      "MRAcquisitionType": "2D",
      "MagneticFieldStrength": 3.0,
      "Manufacturer": "SIEMENS",
      "ManufacturerModelName": "Prisma_fit",
      "Modality": "MR",
      "NumberOfAverages": 1.0,
      "NumberOfPhaseEncodingSteps": 104,
      "PercentPhaseFieldOfView": 100.0,
      "PercentSampling": 100.0,
      "PerformedProcedureStepStartTime": "113001.116000",
      "PhotometricInterpretation": "MONOCHROME2",
      "PixelBandwidth": 2290.0,
      "PixelRepresentation": 0,
      "PixelSpacing": [2.0, 2.0],
      "ProtocolName": "func_task-mario3_run-01",
      "RepetitionTime": 1490.0,
      "Rows": 832,
      "SAR": 0.06397418475045,
      "SamplesPerPixel": 1,
      "ScanOptions": "FS",
      "ScanningSequence": "EP",
      "SequenceName": "epfid2d1_104",
      "SequenceVariant": [
        "SK",
        "SS"
],
      "SeriesDescription": "func_task-mario3_run-01",
      "SeriesNumber": 10,
      "SeriesTime": "113453.808000",
      "SliceLocation": -28.40891674995,
      "SliceThickness": 2.0,
      "SmallestImagePixelValue": 0,
      "SoftwareVersions": "syngo MR E11",
      "SpacingBetweenSlices": 2.0000000158923,
      "SpecificCharacterSet": "ISO_IR 100",
      "StudyID": "1",
      "StudyTime": "113000.746000",
      "TransmitCoilName": "Body",
      "VariableFlipAngleFlag": "N",
      "WindowCenterWidthExplanation": "Algo1",
      "dBdt": 0.0},
    "slices": {}
  },
  "time": {
    "samples": {
      "AcquisitionNumber": [1, 2, 3, 4, 5, 6, 7, 8, 9, 10, 11, 12, 13, 14, 15, 16, 17, 18, 19, 20, 21, 22, 23, 24, 25, 26, 27, 28, 29, 30, 31, 32, 33, 34, 35, 36, 37, 38, 39, 40, 41, 42, 43, 44, 45, 46, 47, 48, 49, 50, 51, 52, 53, 54, 55, 56, 57, 58, 59, 60, 61, 62, 63, 64, 65, 66, 67, 68, 69, 70, 71, 72, 73, 74, 75, 76, 77, 78, 79, 80, 81, 82, 83, 84, 85, 86, 87, 88, 89, 90, 91, 92, 93, 94, 95, 96, 97, 98, 99, 100, 101, 102, 103, 104, 105, 106, 107, 108, 109, 110, 111, 112, 113, 114, 115, 116, 117, 118, 119, 120, 121, 122, 123, 124, 125, 126, 127, 128, 129, 130, 131, 132, 133, 134, 135, 136, 137, 138, 139, 140, 141, 142, 143, 144, 145, 146, 147, 148, 149, 150, 151, 152, 153, 154, 155, 156, 157, 158, 159, 160, 161, 162, 163, 164, 165, 166, 167, 168, 169, 170, 171, 172, 173, 174, 175, 176, 177, 178, 179, 180, 181, 182, 183, 184, 185, 186, 187, 188, 189, 190, 191, 192, 193, 194, 195, 196, 197, 198, 199, 200, 201, 202, 203, 204, 205, 206, 207, 208, 209, 210, 211, 212, 213, 214, 215, 216, 217, 218, 219, 220, 221, 222, 223, 224, 225, 226, 227, 228, 229, 230, 231, 232, 233, 234, 235, 236, 237, 238, 239, 240, 241, 242, 243, 244, 245, 246, 247, 248, 249, 250, 251, 252, 253, 254, 255, 256, 257, 258, 259, 260, 261, 262, 263, 264, 265, 266, 267, 268, 269, 270, 271, 272, 273, 274, 275, 276, 277, 278, 279, 280, 281, 282, 283, 284, 285, 286, 287, 288, 289, 290, 291, 292, 293, 294, 295, 296, 297, 298, 299, 300, 301, 302, 303, 304, 305, 306, 307, 308, 309, 310, 311, 312, 313, 314, 315, 316, 317, 318, 319, 320, 321, 322, 323, 324, 325, 326, 327, 328, 329, 330, 331, 332, 333, 334, 335, 336, 337, 338, 339, 340, 341],
      "AcquisitionTime": ["113343.275000", "113344.765000", "113346.255000", "113347.745000", "113349.235000", "113350.725000", "113352.215000", "113353.705000", "113355.195000", "113356.685000", "113358.175000", "113359.665000", "113401.155000", "113402.645000", "113404.135000", "113405.625000", "113407.115000", "113408.605000", "113410.095000", "113411.585000", "113413.075000", "113414.565000", "113416.055000", "113417.545000", "113419.035000", "113420.525000", "113422.015000", "113423.505000", "113424.995000", "113426.485000", "113427.975000", "113429.465000", "113430.955000", "113432.445000", "113433.935000", "113435.425000", "113436.915000", "113438.405000", "113439.895000", "113441.385000", "113442.875000", "113444.365000", "113445.855000", "113447.345000", "113448.835000", "113450.325000", "113451.815000", "113453.305000", "113454.795000", "113456.285000", "113457.775000", "113459.265000", "113500.755000", "113502.245000", "113503.735000", "113505.225000", "113506.715000", "113508.205000", "113509.695000", "113511.185000", "113512.675000", "113514.165000", "113515.655000", "113517.145000", "113518.635000", "113520.125000", "113521.615000", "113523.105000", "113524.595000", "113526.085000", "113527.575000", "113529.065000", "113530.555000", "113532.045000", "113533.535000", "113535.025000", "113536.515000", "113538.005000", "113539.495000", "113540.985000", "113542.475000", "113543.965000", "113545.455000", "113546.945000", "113548.435000", "113549.925000", "113551.415000", "113552.905000", "113554.395000", "113555.885000", "113557.375000", "113558.865000", "113600.355000", "113601.845000", "113603.335000", "113604.825000", "113606.315000", "113607.805000", "113609.295000", "113610.785000", "113612.275000", "113613.765000", "113615.255000", "113616.745000", "113618.235000", "113619.725000", "113621.215000", "113622.705000", "113624.195000", "113625.685000", "113627.175000", "113628.665000", "113630.155000", "113631.645000", "113633.135000", "113634.625000", "113636.115000", "113637.605000", "113639.095000", "113640.585000", "113642.075000", "113643.565000", "113645.055000", "113646.545000", "113648.035000", "113649.525000", "113651.015000", "113652.505000", "113653.995000", "113655.485000", "113656.975000", "113658.465000", "113659.955000", "113701.445000", "113702.935000", "113704.425000", "113705.915000", "113707.405000", "113708.895000", "113710.385000", "113711.875000", "113713.365000", "113714.855000", "113716.345000", "113717.835000", "113719.325000", "113720.815000", "113722.305000", "113723.795000", "113725.285000", "113726.775000", "113728.265000", "113729.755000", "113731.245000", "113732.735000", "113734.225000", "113735.715000", "113737.205000", "113738.695000", "113740.185000", "113741.675000", "113743.165000", "113744.655000", "113746.145000", "113747.635000", "113749.125000", "113750.615000", "113752.105000", "113753.595000", "113755.085000", "113756.575000", "113758.065000", "113759.555000", "113801.045000", "113802.535000", "113804.025000", "113805.515000", "113807.005000", "113808.495000", "113809.985000", "113811.475000", "113812.965000", "113814.455000", "113815.945000", "113817.435000", "113818.925000", "113820.415000", "113821.905000", "113823.395000", "113824.885000", "113826.375000", "113827.865000", "113829.355000", "113830.845000", "113832.335000", "113833.825000", "113835.315000", "113836.805000", "113838.295000", "113839.785000", "113841.275000", "113842.765000", "113844.255000", "113845.745000", "113847.235000", "113848.725000", "113850.215000", "113851.705000", "113853.195000", "113854.685000", "113856.175000", "113857.665000", "113859.155000", "113900.645000", "113902.135000", "113903.625000", "113905.115000", "113906.605000", "113908.095000", "113909.585000", "113911.075000", "113912.565000", "113914.055000", "113915.545000", "113917.035000", "113918.525000", "113920.015000", "113921.505000", "113922.995000", "113924.485000", "113925.975000", "113927.465000", "113928.955000", "113930.445000", "113931.935000", "113933.425000", "113934.915000", "113936.405000", "113937.895000", "113939.385000", "113940.875000", "113942.365000", "113943.855000", "113945.345000", "113946.835000", "113948.325000", "113949.815000", "113951.305000", "113952.795000", "113954.285000", "113955.775000", "113957.265000", "113958.755000", "114000.245000", "114001.735000", "114003.225000", "114004.715000", "114006.205000", "114007.695000", "114009.185000", "114010.675000", "114012.165000", "114013.655000", "114015.145000", "114016.635000", "114018.125000", "114019.615000", "114021.105000", "114022.595000", "114024.085000", "114025.575000", "114027.065000", "114028.555000", "114030.045000", "114031.535000", "114033.025000", "114034.515000", "114036.005000", "114037.495000", "114038.985000", "114040.475000", "114041.965000", "114043.455000", "114044.945000", "114046.435000", "114047.925000", "114049.415000", "114050.905000", "114052.395000", "114053.885000", "114055.375000", "114056.865000", "114058.355000", "114059.845000", "114101.335000", "114102.825000", "114104.315000", "114105.805000", "114107.295000", "114108.785000", "114110.275000", "114111.765000", "114113.255000", "114114.745000", "114116.235000", "114117.725000", "114119.215000", "114120.705000", "114122.195000", "114123.685000", "114125.175000", "114126.665000", "114128.155000", "114129.645000", "114131.135000", "114132.625000", "114134.115000", "114135.605000", "114137.095000", "114138.585000", "114140.075000", "114141.565000", "114143.055000", "114144.545000", "114146.035000", "114147.525000", "114149.015000", "114150.505000", "114151.995000", "114153.485000", "114154.975000", "114156.465000", "114157.955000", "114159.445000", "114200.935000", "114202.425000", "114203.915000", "114205.405000", "114206.895000", "114208.385000", "114209.875000"],
      "ContentTime": ["113453.811000", "113453.815000", "113453.818000", "113453.821000", "113453.825000", "113453.834000", "113453.838000", "113453.841000", "113453.844000", "113453.848000", "113453.851000", "113453.854000", "113453.857000", "113453.861000", "113453.864000", "113453.867000", "113453.872000", "113453.876000", "113453.879000", "113453.882000", "113453.886000", "113453.889000", "113513.776000", "113513.780000", "113513.783000", "113513.786000", "113513.790000", "113513.793000", "113513.796000", "113513.799000", "113513.803000", "113513.806000", "113513.809000", "113513.812000", "113513.816000", "113513.819000", "113513.827000", "113513.830000", "113513.833000", "113513.837000", "113513.840000", "113513.843000", "113533.776000", "113533.780000", "113533.783000", "113533.787000", "113533.790000", "113533.793000", "113533.797000", "113533.800000", "113533.803000", "113533.807000", "113533.810000", "113533.813000", "113533.817000", "113533.820000", "113533.823000", "113533.826000", "113533.830000", "113533.850000", "113533.853000", "113533.856000", "113553.775000", "113553.779000", "113553.782000", "113553.785000", "113553.788000", "113553.792000", "113553.795000", "113553.799000", "113553.802000", "113553.806000", "113553.815000", "113553.818000", "113553.821000", "113553.825000", "113553.828000", "113553.831000", "113553.834000", "113553.838000", "113553.841000", "113553.844000", "113553.848000", "113633.776000", "113633.780000", "113633.783000", "113633.786000", "113633.790000", "113633.793000", "113633.796000", "113633.800000", "113633.803000", "113633.806000", "113633.810000", "113633.813000", "113633.816000", "113633.821000", "113633.824000", "113633.828000", "113633.832000", "113633.836000", "113633.839000", "113633.843000", "113633.846000", "113633.850000", "113633.853000", "113633.856000", "113633.860000", "113633.863000", "113633.866000", "113633.870000", "113633.873000", "113633.876000", "113713.776000", "113713.780000", "113713.783000", "113713.787000", "113713.790000", "113713.794000", "113713.797000", "113713.801000", "113713.804000", "113713.807000", "113713.811000", "113713.814000", "113713.817000", "113713.825000", "113713.828000", "113713.832000", "113713.835000", "113713.838000", "113713.842000", "113713.845000", "113713.848000", "113713.852000", "113713.855000", "113713.858000", "113713.862000", "113713.865000", "113713.868000", "113753.776000", "113753.780000", "113753.783000", "113753.787000", "113753.790000", "113753.793000", "113753.797000", "113753.800000", "113753.803000", "113753.807000", "113753.810000", "113753.813000", "113753.816000", "113753.820000", "113753.823000", "113753.826000", "113753.830000", "113753.846000", "113753.849000", "113753.852000", "113753.855000", "113753.859000", "113753.862000", "113753.865000", "113753.868000", "113753.872000", "113753.875000", "113833.775000", "113833.779000", "113833.782000", "113833.785000", "113833.789000", "113833.792000", "113833.795000", "113833.799000", "113833.802000", "113833.806000", "113833.809000", "113833.812000", "113833.815000", "113833.819000", "113833.822000", "113833.825000", "113833.829000", "113833.832000", "113833.835000", "113833.839000", "113833.842000", "113833.845000", "113833.848000", "113833.852000", "113833.855000", "113833.858000", "113833.862000", "113913.776000", "113913.780000", "113913.783000", "113913.786000", "113913.790000", "113913.793000", "113913.796000", "113913.800000", "113913.803000", "113913.806000", "113913.810000", "113913.813000", "113913.816000", "113913.820000", "113913.823000", "113913.826000", "113913.830000", "113913.833000", "113913.836000", "113913.846000", "113913.849000", "113913.852000", "113913.856000", "113913.859000", "113913.862000", "113913.866000", "113913.869000", "113953.776000", "113953.780000", "113953.783000", "113953.787000", "113953.790000", "113953.793000", "113953.797000", "113953.800000", "113953.803000", "113953.807000", "113953.810000", "113953.813000", "113953.816000", "113953.820000", "113953.823000", "113953.826000", "113953.830000", "113953.833000", "113953.836000", "113953.839000", "113953.843000", "113953.846000", "113953.849000", "113953.853000", "113953.856000", "113953.859000", "113953.863000", "114033.775000", "114033.779000", "114033.782000", "114033.786000", "114033.789000", "114033.792000", "114033.796000", "114033.799000", "114033.802000", "114033.806000", "114033.809000", "114033.812000", "114033.815000", "114033.819000", "114033.822000", "114033.825000", "114033.829000", "114033.832000", "114033.835000", "114033.839000", "114033.842000", "114033.845000", "114033.849000", "114033.852000", "114033.855000", "114033.859000", "114033.862000", "114113.776000", "114113.780000", "114113.783000", "114113.786000", "114113.790000", "114113.793000", "114113.796000", "114113.800000", "114113.803000", "114113.806000", "114113.810000", "114113.814000", "114113.818000", "114113.821000", "114113.825000", "114113.828000", "114113.831000", "114113.835000", "114113.838000", "114113.841000", "114113.844000", "114113.848000", "114113.851000", "114113.854000", "114113.858000", "114113.861000", "114153.776000", "114153.780000", "114153.783000", "114153.787000", "114153.790000", "114153.793000", "114153.797000", "114153.800000", "114153.803000", "114153.807000", "114153.810000", "114153.813000", "114153.817000", "114153.820000", "114153.823000", "114153.827000", "114153.830000", "114153.833000", "114153.837000", "114153.840000", "114153.843000", "114153.847000", "114153.850000", "114153.853000", "114153.856000", "114153.860000", "114153.863000", "114212.276000", "114212.280000", "114212.283000", "114212.286000", "114212.290000", "114212.293000", "114212.296000", "114212.300000", "114212.303000", "114212.306000", "114212.310000", "114212.313000", "114212.316000"],
      "InstanceCreationTime": ["113453.811000", "113453.815000", "113453.818000", "113453.821000", "113453.825000", "113453.834000", "113453.838000", "113453.841000", "113453.844000", "113453.848000", "113453.851000", "113453.854000", "113453.857000", "113453.861000", "113453.864000", "113453.867000", "113453.872000", "113453.876000", "113453.879000", "113453.882000", "113453.886000", "113453.889000", "113513.776000", "113513.780000", "113513.783000", "113513.786000", "113513.790000", "113513.793000", "113513.796000", "113513.799000", "113513.803000", "113513.806000", "113513.809000", "113513.812000", "113513.816000", "113513.819000", "113513.827000", "113513.830000", "113513.833000", "113513.837000", "113513.840000", "113513.843000", "113533.776000", "113533.780000", "113533.783000", "113533.787000", "113533.790000", "113533.793000", "113533.797000", "113533.800000", "113533.803000", "113533.807000", "113533.810000", "113533.813000", "113533.817000", "113533.820000", "113533.823000", "113533.826000", "113533.830000", "113533.850000", "113533.853000", "113533.856000", "113553.775000", "113553.779000", "113553.782000", "113553.785000", "113553.788000", "113553.792000", "113553.795000", "113553.799000", "113553.802000", "113553.806000", "113553.815000", "113553.818000", "113553.821000", "113553.825000", "113553.828000", "113553.831000", "113553.834000", "113553.838000", "113553.841000", "113553.844000", "113553.848000", "113633.776000", "113633.780000", "113633.783000", "113633.786000", "113633.790000", "113633.793000", "113633.796000", "113633.800000", "113633.803000", "113633.806000", "113633.810000", "113633.813000", "113633.816000", "113633.821000", "113633.824000", "113633.828000", "113633.832000", "113633.836000", "113633.839000", "113633.843000", "113633.846000", "113633.850000", "113633.853000", "113633.856000", "113633.860000", "113633.863000", "113633.866000", "113633.870000", "113633.873000", "113633.876000", "113713.776000", "113713.780000", "113713.783000", "113713.787000", "113713.790000", "113713.794000", "113713.797000", "113713.801000", "113713.804000", "113713.807000", "113713.811000", "113713.814000", "113713.817000", "113713.825000", "113713.828000", "113713.832000", "113713.835000", "113713.838000", "113713.842000", "113713.845000", "113713.848000", "113713.852000", "113713.855000", "113713.858000", "113713.862000", "113713.865000", "113713.868000", "113753.776000", "113753.780000", "113753.783000", "113753.787000", "113753.790000", "113753.793000", "113753.797000", "113753.800000", "113753.803000", "113753.807000", "113753.810000", "113753.813000", "113753.816000", "113753.820000", "113753.823000", "113753.826000", "113753.830000", "113753.846000", "113753.849000", "113753.852000", "113753.855000", "113753.859000", "113753.862000", "113753.865000", "113753.868000", "113753.872000", "113753.875000", "113833.775000", "113833.779000", "113833.782000", "113833.785000", "113833.789000", "113833.792000", "113833.795000", "113833.799000", "113833.802000", "113833.806000", "113833.809000", "113833.812000", "113833.815000", "113833.819000", "113833.822000", "113833.825000", "113833.829000", "113833.832000", "113833.835000", "113833.839000", "113833.842000", "113833.845000", "113833.848000", "113833.852000", "113833.855000", "113833.858000", "113833.862000", "113913.776000", "113913.780000", "113913.783000", "113913.786000", "113913.790000", "113913.793000", "113913.796000", "113913.800000", "113913.803000", "113913.806000", "113913.810000", "113913.813000", "113913.816000", "113913.820000", "113913.823000", "113913.826000", "113913.830000", "113913.833000", "113913.836000", "113913.846000", "113913.849000", "113913.852000", "113913.856000", "113913.859000", "113913.862000", "113913.866000", "113913.869000", "113953.776000", "113953.780000", "113953.783000", "113953.787000", "113953.790000", "113953.793000", "113953.797000", "113953.800000", "113953.803000", "113953.807000", "113953.810000", "113953.813000", "113953.816000", "113953.820000", "113953.823000", "113953.826000", "113953.830000", "113953.833000", "113953.836000", "113953.839000", "113953.843000", "113953.846000", "113953.849000", "113953.853000", "113953.856000", "113953.859000", "113953.863000", "114033.775000", "114033.779000", "114033.782000", "114033.786000", "114033.789000", "114033.792000", "114033.796000", "114033.799000", "114033.802000", "114033.806000", "114033.809000", "114033.812000", "114033.815000", "114033.819000", "114033.822000", "114033.825000", "114033.829000", "114033.832000", "114033.835000", "114033.839000", "114033.842000", "114033.845000", "114033.849000", "114033.852000", "114033.855000", "114033.859000", "114033.862000", "114113.776000", "114113.780000", "114113.783000", "114113.786000", "114113.790000", "114113.793000", "114113.796000", "114113.800000", "114113.803000", "114113.806000", "114113.810000", "114113.814000", "114113.818000", "114113.821000", "114113.825000", "114113.828000", "114113.831000", "114113.835000", "114113.838000", "114113.841000", "114113.844000", "114113.848000", "114113.851000", "114113.854000", "114113.858000", "114113.861000", "114153.776000", "114153.780000", "114153.783000", "114153.787000", "114153.790000", "114153.793000", "114153.797000", "114153.800000", "114153.803000", "114153.807000", "114153.810000", "114153.813000", "114153.817000", "114153.820000", "114153.823000", "114153.827000", "114153.830000", "114153.833000", "114153.837000", "114153.840000", "114153.843000", "114153.847000", "114153.850000", "114153.853000", "114153.856000", "114153.860000", "114153.863000", "114212.276000", "114212.280000", "114212.283000", "114212.286000", "114212.290000", "114212.293000", "114212.296000", "114212.300000", "114212.303000", "114212.306000", "114212.310000", "114212.313000", "114212.316000"],
      "InstanceNumber": [1, 2, 3, 4, 5, 6, 7, 8, 9, 10, 11, 12, 13, 14, 15, 16, 17, 18, 19, 20, 21, 22, 23, 24, 25, 26, 27, 28, 29, 30, 31, 32, 33, 34, 35, 36, 37, 38, 39, 40, 41, 42, 43, 44, 45, 46, 47, 48, 49, 50, 51, 52, 53, 54, 55, 56, 57, 58, 59, 60, 61, 62, 63, 64, 65, 66, 67, 68, 69, 70, 71, 72, 73, 74, 75, 76, 77, 78, 79, 80, 81, 82, 83, 84, 85, 86, 87, 88, 89, 90, 91, 92, 93, 94, 95, 96, 97, 98, 99, 100, 101, 102, 103, 104, 105, 106, 107, 108, 109, 110, 111, 112, 113, 114, 115, 116, 117, 118, 119, 120, 121, 122, 123, 124, 125, 126, 127, 128, 129, 130, 131, 132, 133, 134, 135, 136, 137, 138, 139, 140, 141, 142, 143, 144, 145, 146, 147, 148, 149, 150, 151, 152, 153, 154, 155, 156, 157, 158, 159, 160, 161, 162, 163, 164, 165, 166, 167, 168, 169, 170, 171, 172, 173, 174, 175, 176, 177, 178, 179, 180, 181, 182, 183, 184, 185, 186, 187, 188, 189, 190, 191, 192, 193, 194, 195, 196, 197, 198, 199, 200, 201, 202, 203, 204, 205, 206, 207, 208, 209, 210, 211, 212, 213, 214, 215, 216, 217, 218, 219, 220, 221, 222, 223, 224, 225, 226, 227, 228, 229, 230, 231, 232, 233, 234, 235, 236, 237, 238, 239, 240, 241, 242, 243, 244, 245, 246, 247, 248, 249, 250, 251, 252, 253, 254, 255, 256, 257, 258, 259, 260, 261, 262, 263, 264, 265, 266, 267, 268, 269, 270, 271, 272, 273, 274, 275, 276, 277, 278, 279, 280, 281, 282, 283, 284, 285, 286, 287, 288, 289, 290, 291, 292, 293, 294, 295, 296, 297, 298, 299, 300, 301, 302, 303, 304, 305, 306, 307, 308, 309, 310, 311, 312, 313, 314, 315, 316, 317, 318, 319, 320, 321, 322, 323, 324, 325, 326, 327, 328, 329, 330, 331, 332, 333, 334, 335, 336, 337, 338, 339, 340, 341],
      "LargestImagePixelValue": [49325, 47480, 48249, 47631, 46659, 46114, 43507, 43897, 42400, 42661, 42057, 40304, 41163, 41089, 40041, 40299, 42675, 42588, 41817, 40845, 40188, 41110, 41313, 41499, 41323, 43301, 43062, 43196, 43154, 43049, 42796, 42600, 40677, 40246, 41634, 41482, 40579, 41154, 41202, 40036, 40010, 39717, 39552, 39522, 39530, 39744, 40203, 41009, 40124, 40464, 41873, 41439, 41741, 41108, 40944, 42370, 42142, 42204, 42341, 42168, 42156, 42916, 42436, 42306, 42099, 42341, 41878, 42045, 42263, 42638, 42580, 41193, 42244, 41564, 41462, 41784, 41216, 43031, 41697, 43230, 41158, 40692, 41579, 41062, 41547, 41598, 40561, 40908, 41283, 40906, 39927, 40621, 39775, 40234, 40311, 40328, 40258, 40497, 40732, 40413, 39814, 40394, 40212, 39993, 40642, 40987, 40201, 40437, 40483, 40480, 40698, 41753, 40484, 41032, 41500, 40834, 40852, 40858, 39942, 40687, 40249, 40366, 40403, 40930, 41462, 41286, 41182, 40752, 40981, 40664, 40169, 40965, 40965, 40750, 40866, 40528, 40881, 41478, 40610, 41509, 41484, 41317, 41653, 40544, 40855, 41022, 40807, 40327, 40486, 40441, 40457, 40635, 40620, 40090, 40626, 40579, 40698, 40452, 40830, 40454, 40615, 40403, 40448, 40876, 41082, 40543, 40953, 40484, 40515, 40709, 40617, 40575, 40513, 40596, 40550, 40249, 40286, 40113, 40410, 40886, 40870, 40494, 40536, 41107, 41002, 40606, 40569, 40538, 40627, 41144, 40672, 39880, 39797, 40289, 40507, 39964, 40342, 40518, 40388, 40288, 40255, 40047, 40249, 40584, 40404, 40414, 40396, 40461, 40723, 40108, 40362, 41226, 41072, 40443, 40209, 40620, 40720, 40313, 40419, 40611, 39951, 40259, 40085, 40445, 40297, 39509, 40413, 40125, 40675, 40064, 40386, 39879, 40576, 40473, 40590, 40567, 39962, 40644, 40393, 40219, 40128, 40664, 40118, 40326, 40080, 40168, 39796, 40234, 40400, 40365, 40632, 41130, 41182, 41344, 41413, 41276, 40205, 42132, 40349, 40643, 40629, 40600, 40224, 41620, 40538, 41251, 40220, 41031, 41246, 41430, 41241, 41956, 42243, 43263, 42541, 42204, 43083, 43321, 42175, 42912, 43026, 42472, 43419, 43166, 43160, 42204, 42643, 42654, 42520, 43073, 42802, 42821, 43395, 43224, 42604, 43076, 42709, 42217, 42745, 42704, 42924, 42491, 42306, 41604, 43021, 42375, 43385, 43085, 42813, 43573, 43428, 43456, 43440, 44233, 43593, 43012, 44033, 44462, 44422, 43665, 43925, 43134, 43425, 44400, 43711, 43725, 43602, 43488, 44333, 45014, 44840, 44960, 44781, 44496, 43892, 43790, 44891, 45160, 45026, 45241, 44996],
