{
  "AcquisitionMatrixPE": 104,
  "AcquisitionNumber": 1,
  "AcquisitionTime": "11:54:21.737500",
  "BandwidthPerPixelPhaseEncode": 17.17,
  "BaseResolution": 104,
  "BodyPartExamined": "BRAIN",
  "CoilCombinationMethod": "Sum of Squares",
  "ConsistencyInfo": "N4_VE11C_LATEST_20160120",
  "ConversionSoftware": "dcm2niix",
  "ConversionSoftwareVersion": "v1.0.20220505",
  "DerivedVendorReportedEchoSpacing": 0.000560011,
  "DeviceSerialNumber": "167006",
  "DwellTime": 2.1e-06,
  "EchoTime": 0.037,
  "EchoTrainLength": 104,
  "EffectiveEchoSpacing": 0.000560011,
  "FlipAngle": 52,
  "HeudiconvVersion": "0.5.3.post811+g6206e14",
  "ImageComments": "Unaliased MB4/PE3/LB",
  "ImageOrientationPatientDICOM": [0.995908, 0.0837967, 0.033846, -0.0682435, 0.942825, -0.326226],
  "ImageOrientationText": "Tra>Cor(-18.9)>Sag(3.4)",
  "ImageType": [
    "ORIGINAL",
    "PRIMARY",
    "M",
    "MB",
    "ND",
    "MOSAIC"
],
  "ImagingFrequency": 123.259,
  "InPlanePhaseEncodingDirectionDICOM": "COL",
  "InstitutionAddress": "Chemin Queen-Mary 4565,Montreal,District,CA,H3W 1W5",
  "InstitutionName": "IUGM",
  "InstitutionalDepartmentName": "Department",
  "MRAcquisitionType": "2D",
  "MagneticFieldStrength": 3,
  "Manufacturer": "Siemens",
  "ManufacturersModelName": "Prisma_fit",
  "MatrixCoilMode": "SENSE",
  "Modality": "MR",
  "MultibandAccelerationFactor": 4,
  "PartialFourier": 1,
  "PatientPosition": "HFS",
  "PercentPhaseFOV": 100,
  "PercentSampling": 100,
  "PhaseEncodingDirection": "j",
  "PhaseEncodingSteps": 104,
  "PhaseResolution": 1,
  "PixelBandwidth": 2290,
  "ProcedureStepDescription": "games^mario3",
  "ProtocolName": "func_task-mario3_run-03",
  "PulseSequenceDetails": "%CustomerSeq%\\cmrr_mbep2d_bold",
  "ReceiveCoilActiveElements": "HC1-7;NC1,2",
  "ReceiveCoilName": "HeadNeck_64",
  "ReconMatrixPE": 104,
  "RepetitionTime": 1.49,
  "SAR": 0.0639742,
  "ScanOptions": "FS",
  "ScanningSequence": "EP",
  "SequenceName": "epfid2d1_104",
  "SequenceVariant": "SK\\SS",
  "SeriesDescription": "func_task-mario3_run-03",
  "SeriesNumber": 16,
  "ShimSetting": [609, -7232, -8785, 638, 135, -30, -73, 63],
  "SliceThickness": 2,
  "SliceTiming": [0, 0.785, 0.1, 0.8825, 0.1975, 0.98, 0.295, 1.08, 0.3925, 1.1775, 0.49, 1.275, 0.59, 1.3725, 0.6875, 0, 0.785, 0.1, 0.8825, 0.1975, 0.98, 0.295, 1.08, 0.3925, 1.1775, 0.49, 1.275, 0.59, 1.3725, 0.6875, 0, 0.785, 0.1, 0.8825, 0.1975, 0.98, 0.295, 1.08, 0.3925, 1.1775, 0.49, 1.275, 0.59, 1.3725, 0.6875, 0, 0.785, 0.1, 0.8825, 0.1975, 0.98, 0.295, 1.08, 0.3925, 1.1775, 0.49, 1.275, 0.59, 1.3725, 0.6875],
  "SoftwareVersions": "syngo MR E11",
  "SpacingBetweenSlices": 2,
  "StationName": "MRC35049",
  "TaskName": "mario3",
  "TotalReadoutTime": 0.0576811,
  "TxRefAmp": 284.4,
  "WipMemBlock": "f4ea00e7-7c99-4a13-9c0b-d71d7c89b325||Sequence: R017 ve11c/master r/75a17815+; Jun 28 2022 16:32:11 by eja",
  "dcmmeta_affine": [
    [-1.9918158054351807, -0.13648700714111328, 0.11849506944417953, 109.96051025390625],
    [-0.16759347915649414, 1.8856505155563354, -0.6451622843742371, -60.42102813720703],
    [0.06769201159477234, 0.652451753616333, 1.8893715143203735, -57.60062789916992],
    [0.0, 0.0, 0.0, 1.0]
],
  "dcmmeta_reorient_transform": [
    [0.0, -1.0, 0.0, 103.0],
    [1.0, 0.0, 0.0, 0.0],
    [0.0, 0.0, 1.0, 0.0],
    [0.0, 0.0, 0.0, 1.0]
],
  "dcmmeta_shape": [104, 104, 60, 345],
  "dcmmeta_slice_dim": 2,
  "dcmmeta_version": 0.6,
  "global": {
    "const": {
      "AcquisitionMatrix": [104, 0, 0, 104],
      "AngioFlag": "N",
      "BitsAllocated": 16,
      "BitsStored": 16,
      "BodyPartExamined": "BRAIN",
      "Columns": 832,
      "EchoNumbers": 1,
      "EchoTime": 37.0,
      "EchoTrainLength": 104,
      "FlipAngle": 52.0,
      "HighBit": 15,
      "ImageOrientationPatient": [0.9959079042997, 0.08379674319296, 0.03384600395359, -0.068243504988, 0.94282528060147, -0.3262258639129],
      "ImagePositionPatient": [-771.24203427428, -881.18181139462, 222.45443855145],
      "ImageType": [
        "ORIGINAL",
        "PRIMARY",
        "M",
        "MB",
        "ND",
        "MOSAIC"
],
      "ImagedNucleus": "1H",
      "ImagingFrequency": 123.259305,
      "InPlanePhaseEncodingDirection": "COL",
      "MRAcquisitionType": "2D",
      "MagneticFieldStrength": 3.0,
      "Manufacturer": "SIEMENS",
      "ManufacturerModelName": "Prisma_fit",
      "Modality": "MR",
      "NumberOfAverages": 1.0,
      "NumberOfPhaseEncodingSteps": 104,
      "PercentPhaseFieldOfView": 100.0,
      "PercentSampling": 100.0,
      "PerformedProcedureStepStartTime": "113001.116000",
      "PhotometricInterpretation": "MONOCHROME2",
      "PixelBandwidth": 2290.0,
      "PixelRepresentation": 0,
      "PixelSpacing": [2.0, 2.0],
      "ProtocolName": "func_task-mario3_run-03",
      "RepetitionTime": 1490.0,
      "Rows": 832,
      "SAR": 0.06397418475045,
      "SamplesPerPixel": 1,
      "ScanOptions": "FS",
      "ScanningSequence": "EP",
      "SequenceName": "epfid2d1_104",
      "SequenceVariant": [
        "SK",
        "SS"
],
      "SeriesDescription": "func_task-mario3_run-03",
      "SeriesNumber": 16,
      "SeriesTime": "115544.408000",
      "SliceLocation": -28.40891674995,
      "SliceThickness": 2.0,
      "SmallestImagePixelValue": 0,
      "SoftwareVersions": "syngo MR E11",
      "SpacingBetweenSlices": 2.0000000158923,
      "SpecificCharacterSet": "ISO_IR 100",
      "StudyID": "1",
      "StudyTime": "113000.746000",
      "TransmitCoilName": "Body",
      "VariableFlipAngleFlag": "N",
      "WindowCenterWidthExplanation": "Algo1",
      "dBdt": 0.0},
    "slices": {}
  },
  "time": {
    "samples": {
      "AcquisitionNumber": [1, 2, 3, 4, 5, 6, 7, 8, 9, 10, 11, 12, 13, 14, 15, 16, 17, 18, 19, 20, 21, 22, 23, 24, 25, 26, 27, 28, 29, 30, 31, 32, 33, 34, 35, 36, 37, 38, 39, 40, 41, 42, 43, 44, 45, 46, 47, 48, 49, 50, 51, 52, 53, 54, 55, 56, 57, 58, 59, 60, 61, 62, 63, 64, 65, 66, 67, 68, 69, 70, 71, 72, 73, 74, 75, 76, 77, 78, 79, 80, 81, 82, 83, 84, 85, 86, 87, 88, 89, 90, 91, 92, 93, 94, 95, 96, 97, 98, 99, 100, 101, 102, 103, 104, 105, 106, 107, 108, 109, 110, 111, 112, 113, 114, 115, 116, 117, 118, 119, 120, 121, 122, 123, 124, 125, 126, 127, 128, 129, 130, 131, 132, 133, 134, 135, 136, 137, 138, 139, 140, 141, 142, 143, 144, 145, 146, 147, 148, 149, 150, 151, 152, 153, 154, 155, 156, 157, 158, 159, 160, 161, 162, 163, 164, 165, 166, 167, 168, 169, 170, 171, 172, 173, 174, 175, 176, 177, 178, 179, 180, 181, 182, 183, 184, 185, 186, 187, 188, 189, 190, 191, 192, 193, 194, 195, 196, 197, 198, 199, 200, 201, 202, 203, 204, 205, 206, 207, 208, 209, 210, 211, 212, 213, 214, 215, 216, 217, 218, 219, 220, 221, 222, 223, 224, 225, 226, 227, 228, 229, 230, 231, 232, 233, 234, 235, 236, 237, 238, 239, 240, 241, 242, 243, 244, 245, 246, 247, 248, 249, 250, 251, 252, 253, 254, 255, 256, 257, 258, 259, 260, 261, 262, 263, 264, 265, 266, 267, 268, 269, 270, 271, 272, 273, 274, 275, 276, 277, 278, 279, 280, 281, 282, 283, 284, 285, 286, 287, 288, 289, 290, 291, 292, 293, 294, 295, 296, 297, 298, 299, 300, 301, 302, 303, 304, 305, 306, 307, 308, 309, 310, 311, 312, 313, 314, 315, 316, 317, 318, 319, 320, 321, 322, 323, 324, 325, 326, 327, 328, 329, 330, 331, 332, 333, 334, 335, 336, 337, 338, 339, 340, 341, 342, 343, 344, 345],
      "AcquisitionTime": ["115421.737500", "115423.227500", "115424.717500", "115426.207500", "115427.697500", "115429.187500", "115430.677500", "115432.167500", "115433.657500", "115435.147500", "115436.637500", "115438.127500", "115439.617500", "115441.107500", "115442.597500", "115444.087500", "115445.577500", "115447.067500", "115448.557500", "115450.047500", "115451.537500", "115453.027500", "115454.517500", "115456.007500", "115457.497500", "115458.987500", "115500.477500", "115501.967500", "115503.457500", "115504.947500", "115506.437500", "115507.927500", "115509.417500", "115510.907500", "115512.397500", "115513.887500", "115515.377500", "115516.867500", "115518.357500", "115519.847500", "115521.337500", "115522.827500", "115524.317500", "115525.807500", "115527.297500", "115528.787500", "115530.277500", "115531.767500", "115533.257500", "115534.747500", "115536.237500", "115537.727500", "115539.217500", "115540.707500", "115542.197500", "115543.687500", "115545.177500", "115546.667500", "115548.157500", "115549.647500", "115551.137500", "115552.627500", "115554.117500", "115555.607500", "115557.097500", "115558.587500", "115600.077500", "115601.567500", "115603.057500", "115604.547500", "115606.037500", "115607.527500", "115609.017500", "115610.507500", "115611.997500", "115613.487500", "115614.977500", "115616.467500", "115617.957500", "115619.447500", "115620.937500", "115622.427500", "115623.917500", "115625.407500", "115626.897500", "115628.387500", "115629.877500", "115631.367500", "115632.857500", "115634.347500", "115635.837500", "115637.327500", "115638.817500", "115640.307500", "115641.797500", "115643.287500", "115644.777500", "115646.267500", "115647.757500", "115649.247500", "115650.737500", "115652.227500", "115653.717500", "115655.207500", "115656.697500", "115658.187500", "115659.677500", "115701.167500", "115702.657500", "115704.147500", "115705.637500", "115707.127500", "115708.617500", "115710.107500", "115711.597500", "115713.087500", "115714.577500", "115716.067500", "115717.557500", "115719.047500", "115720.537500", "115722.027500", "115723.517500", "115725.007500", "115726.497500", "115727.987500", "115729.477500", "115730.967500", "115732.457500", "115733.947500", "115735.437500", "115736.927500", "115738.417500", "115739.907500", "115741.397500", "115742.887500", "115744.377500", "115745.867500", "115747.357500", "115748.847500", "115750.337500", "115751.827500", "115753.317500", "115754.807500", "115756.297500", "115757.787500", "115759.277500", "115800.767500", "115802.257500", "115803.747500", "115805.237500", "115806.727500", "115808.217500", "115809.707500", "115811.197500", "115812.687500", "115814.177500", "115815.667500", "115817.157500", "115818.647500", "115820.137500", "115821.627500", "115823.117500", "115824.607500", "115826.097500", "115827.587500", "115829.077500", "115830.567500", "115832.057500", "115833.547500", "115835.037500", "115836.527500", "115838.017500", "115839.507500", "115840.997500", "115842.487500", "115843.977500", "115845.467500", "115846.957500", "115848.447500", "115849.937500", "115851.427500", "115852.917500", "115854.407500", "115855.897500", "115857.387500", "115858.877500", "115900.367500", "115901.857500", "115903.347500", "115904.837500", "115906.327500", "115907.817500", "115909.307500", "115910.797500", "115912.287500", "115913.777500", "115915.267500", "115916.757500", "115918.247500", "115919.737500", "115921.227500", "115922.717500", "115924.207500", "115925.697500", "115927.187500", "115928.677500", "115930.167500", "115931.657500", "115933.147500", "115934.637500", "115936.127500", "115937.617500", "115939.107500", "115940.597500", "115942.087500", "115943.577500", "115945.067500", "115946.557500", "115948.047500", "115949.537500", "115951.027500", "115952.517500", "115954.007500", "115955.497500", "115956.987500", "115958.477500", "115959.967500", "120001.457500", "120002.947500", "120004.437500", "120005.927500", "120007.417500", "120008.907500", "120010.397500", "120011.887500", "120013.377500", "120014.867500", "120016.357500", "120017.847500", "120019.337500", "120020.827500", "120022.317500", "120023.807500", "120025.297500", "120026.787500", "120028.277500", "120029.767500", "120031.257500", "120032.747500", "120034.237500", "120035.727500", "120037.217500", "120038.707500", "120040.197500", "120041.687500", "120043.177500", "120044.667500", "120046.157500", "120047.647500", "120049.137500", "120050.627500", "120052.117500", "120053.607500", "120055.097500", "120056.587500", "120058.077500", "120059.567500", "120101.057500", "120102.547500", "120104.037500", "120105.527500", "120107.017500", "120108.507500", "120109.997500", "120111.487500", "120112.977500", "120114.467500", "120115.957500", "120117.447500", "120118.937500", "120120.427500", "120121.917500", "120123.407500", "120124.897500", "120126.387500", "120127.877500", "120129.367500", "120130.857500", "120132.347500", "120133.837500", "120135.327500", "120136.817500", "120138.307500", "120139.797500", "120141.287500", "120142.777500", "120144.267500", "120145.757500", "120147.247500", "120148.737500", "120150.227500", "120151.717500", "120153.207500", "120154.697500", "120156.187500", "120157.677500", "120159.167500", "120200.657500", "120202.147500", "120203.637500", "120205.127500", "120206.617500", "120208.107500", "120209.597500", "120211.087500", "120212.577500", "120214.067500", "120215.557500", "120217.047500", "120218.537500", "120220.027500", "120221.517500", "120223.007500", "120224.497500", "120225.987500", "120227.477500", "120228.967500", "120230.457500", "120231.947500", "120233.437500", "120234.927500", "120236.417500", "120237.907500", "120239.397500", "120240.887500", "120242.377500", "120243.867500", "120245.357500", "120246.847500", "120248.337500", "120249.827500", "120251.317500", "120252.807500", "120254.297500"],
      "ContentTime": ["115544.411000", "115544.415000", "115544.418000", "115544.422000", "115544.425000", "115544.428000", "115544.432000", "115544.435000", "115544.438000", "115544.442000", "115544.445000", "115544.448000", "115544.452000", "115544.455000", "115544.458000", "115544.462000", "115544.465000", "115544.468000", "115544.472000", "115544.475000", "115544.478000", "115544.481000", "115544.485000", "115544.488000", "115544.491000", "115544.495000", "115544.498000", "115544.501000", "115544.505000", "115544.508000", "115544.511000", "115544.515000", "115544.518000", "115544.521000", "115604.376000", "115604.380000", "115604.383000", "115604.386000", "115604.400000", "115604.404000", "115604.407000", "115604.411000", "115604.414000", "115604.417000", "115604.421000", "115604.424000", "115604.427000", "115604.431000", "115604.434000", "115604.437000", "115604.440000", "115604.444000", "115604.447000", "115604.450000", "115624.376000", "115624.380000", "115624.383000", "115624.386000", "115624.390000", "115624.393000", "115624.396000", "115624.400000", "115624.403000", "115624.406000", "115624.410000", "115624.413000", "115624.417000", "115624.420000", "115624.423000", "115624.426000", "115624.430000", "115624.433000", "115624.436000", "115624.440000", "115644.376000", "115644.380000", "115644.383000", "115644.386000", "115644.390000", "115644.393000", "115644.396000", "115644.399000", "115644.403000", "115644.406000", "115644.409000", "115644.412000", "115644.416000", "115644.419000", "115644.422000", "115644.426000", "115644.429000", "115644.432000", "115644.436000", "115644.439000", "115724.376000", "115724.380000", "115724.383000", "115724.387000", "115724.390000", "115724.394000", "115724.397000", "115724.400000", "115724.404000", "115724.407000", "115724.410000", "115724.413000", "115724.417000", "115724.420000", "115724.424000", "115724.427000", "115724.430000", "115724.433000", "115724.437000", "115724.440000", "115724.443000", "115724.447000", "115724.450000", "115724.453000", "115724.457000", "115724.460000", "115724.463000", "115724.467000", "115804.376000", "115804.380000", "115804.383000", "115804.386000", "115804.390000", "115804.393000", "115804.396000", "115804.400000", "115804.403000", "115804.406000", "115804.410000", "115804.413000", "115804.416000", "115804.420000", "115804.423000", "115804.434000", "115804.438000", "115804.441000", "115804.444000", "115804.448000", "115804.451000", "115804.454000", "115804.457000", "115804.461000", "115804.464000", "115804.467000", "115804.471000", "115844.376000", "115844.380000", "115844.383000", "115844.387000", "115844.390000", "115844.394000", "115844.399000", "115844.402000", "115844.406000", "115844.409000", "115844.413000", "115844.416000", "115844.420000", "115844.423000", "115844.426000", "115844.429000", "115844.433000", "115844.436000", "115844.439000", "115844.442000", "115844.446000", "115844.449000", "115844.452000", "115844.456000", "115844.459000", "115844.462000", "115924.376000", "115924.380000", "115924.383000", "115924.387000", "115924.390000", "115924.393000", "115924.397000", "115924.400000", "115924.403000", "115924.407000", "115924.410000", "115924.413000", "115924.416000", "115924.420000", "115924.423000", "115924.426000", "115924.430000", "115924.433000", "115924.436000", "115924.440000", "115924.443000", "115924.446000", "115924.449000", "115924.453000", "115924.456000", "115924.459000", "115924.463000", "115944.376000", "115944.380000", "115944.383000", "115944.387000", "115944.390000", "115944.393000", "115944.396000", "115944.400000", "115944.403000", "115944.406000", "115944.410000", "115944.413000", "115944.416000", "115944.419000", "120024.376000", "120024.380000", "120024.383000", "120024.386000", "120024.390000", "120024.393000", "120024.396000", "120024.400000", "120024.403000", "120024.406000", "120024.409000", "120024.413000", "120024.416000", "120024.419000", "120024.423000", "120024.426000", "120024.429000", "120024.432000", "120024.436000", "120024.450000", "120024.454000", "120024.457000", "120024.460000", "120024.463000", "120024.467000", "120024.470000", "120024.473000", "120104.376000", "120104.380000", "120104.384000", "120104.387000", "120104.390000", "120104.394000", "120104.397000", "120104.400000", "120104.404000", "120104.407000", "120104.410000", "120104.414000", "120104.417000", "120104.420000", "120104.423000", "120104.427000", "120104.430000", "120104.433000", "120104.437000", "120104.440000", "120104.443000", "120104.447000", "120104.450000", "120104.453000", "120104.457000", "120104.460000", "120144.376000", "120144.380000", "120144.383000", "120144.386000", "120144.390000", "120144.393000", "120144.396000", "120144.400000", "120144.403000", "120144.406000", "120144.410000", "120144.413000", "120144.416000", "120144.420000", "120144.423000", "120144.426000", "120144.430000", "120144.433000", "120144.436000", "120144.439000", "120144.443000", "120144.446000", "120144.449000", "120144.453000", "120144.456000", "120144.459000", "120144.462000", "120224.376000", "120224.380000", "120224.383000", "120224.387000", "120224.390000", "120224.393000", "120224.397000", "120224.400000", "120224.403000", "120224.406000", "120224.410000", "120224.413000", "120224.416000", "120224.420000", "120224.423000", "120224.426000", "120224.430000", "120224.433000", "120224.436000", "120224.439000", "120224.443000", "120224.446000", "120224.449000", "120224.453000", "120224.456000", "120224.459000", "120224.463000", "120257.044000", "120257.057000", "120257.061000", "120257.064000", "120257.067000", "120257.071000", "120257.074000", "120257.077000", "120257.081000", "120257.084000", "120257.087000", "120257.090000", "120257.094000", "120257.097000", "120257.100000", "120257.104000", "120257.107000", "120257.110000", "120257.113000", "120257.117000", "120257.120000", "120257.123000"],
      "InstanceCreationTime": ["115544.411000", "115544.415000", "115544.418000", "115544.422000", "115544.425000", "115544.428000", "115544.432000", "115544.435000", "115544.438000", "115544.442000", "115544.445000", "115544.448000", "115544.452000", "115544.455000", "115544.458000", "115544.462000", "115544.465000", "115544.468000", "115544.472000", "115544.475000", "115544.478000", "115544.481000", "115544.485000", "115544.488000", "115544.491000", "115544.495000", "115544.498000", "115544.501000", "115544.505000", "115544.508000", "115544.511000", "115544.515000", "115544.518000", "115544.521000", "115604.376000", "115604.380000", "115604.383000", "115604.386000", "115604.400000", "115604.404000", "115604.407000", "115604.411000", "115604.414000", "115604.417000", "115604.421000", "115604.424000", "115604.427000", "115604.431000", "115604.434000", "115604.437000", "115604.440000", "115604.444000", "115604.447000", "115604.450000", "115624.376000", "115624.380000", "115624.383000", "115624.386000", "115624.390000", "115624.393000", "115624.396000", "115624.400000", "115624.403000", "115624.406000", "115624.410000", "115624.413000", "115624.417000", "115624.420000", "115624.423000", "115624.426000", "115624.430000", "115624.433000", "115624.436000", "115624.440000", "115644.376000", "115644.380000", "115644.383000", "115644.386000", "115644.390000", "115644.393000", "115644.396000", "115644.399000", "115644.403000", "115644.406000", "115644.409000", "115644.412000", "115644.416000", "115644.419000", "115644.422000", "115644.426000", "115644.429000", "115644.432000", "115644.436000", "115644.439000", "115724.376000", "115724.380000", "115724.383000", "115724.387000", "115724.390000", "115724.394000", "115724.397000", "115724.400000", "115724.404000", "115724.407000", "115724.410000", "115724.413000", "115724.417000", "115724.420000", "115724.424000", "115724.427000", "115724.430000", "115724.433000", "115724.437000", "115724.440000", "115724.443000", "115724.447000", "115724.450000", "115724.453000", "115724.457000", "115724.460000", "115724.463000", "115724.467000", "115804.376000", "115804.380000", "115804.383000", "115804.386000", "115804.390000", "115804.393000", "115804.396000", "115804.400000", "115804.403000", "115804.406000", "115804.410000", "115804.413000", "115804.416000", "115804.420000", "115804.423000", "115804.434000", "115804.438000", "115804.441000", "115804.444000", "115804.448000", "115804.451000", "115804.454000", "115804.457000", "115804.461000", "115804.464000", "115804.467000", "115804.471000", "115844.376000", "115844.380000", "115844.383000", "115844.387000", "115844.390000", "115844.394000", "115844.399000", "115844.402000", "115844.406000", "115844.409000", "115844.413000", "115844.416000", "115844.420000", "115844.423000", "115844.426000", "115844.429000", "115844.433000", "115844.436000", "115844.439000", "115844.442000", "115844.446000", "115844.449000", "115844.452000", "115844.456000", "115844.459000", "115844.462000", "115924.376000", "115924.380000", "115924.383000", "115924.387000", "115924.390000", "115924.393000", "115924.397000", "115924.400000", "115924.403000", "115924.407000", "115924.410000", "115924.413000", "115924.416000", "115924.420000", "115924.423000", "115924.426000", "115924.430000", "115924.433000", "115924.436000", "115924.440000", "115924.443000", "115924.446000", "115924.449000", "115924.453000", "115924.456000", "115924.459000", "115924.463000", "115944.376000", "115944.380000", "115944.383000", "115944.387000", "115944.390000", "115944.393000", "115944.396000", "115944.400000", "115944.403000", "115944.406000", "115944.410000", "115944.413000", "115944.416000", "115944.419000", "120024.376000", "120024.380000", "120024.383000", "120024.386000", "120024.390000", "120024.393000", "120024.396000", "120024.400000", "120024.403000", "120024.406000", "120024.409000", "120024.413000", "120024.416000", "120024.419000", "120024.423000", "120024.426000", "120024.429000", "120024.432000", "120024.436000", "120024.450000", "120024.454000", "120024.457000", "120024.460000", "120024.463000", "120024.467000", "120024.470000", "120024.473000", "120104.376000", "120104.380000", "120104.384000", "120104.387000", "120104.390000", "120104.394000", "120104.397000", "120104.400000", "120104.404000", "120104.407000", "120104.410000", "120104.414000", "120104.417000", "120104.420000", "120104.423000", "120104.427000", "120104.430000", "120104.433000", "120104.437000", "120104.440000", "120104.443000", "120104.447000", "120104.450000", "120104.453000", "120104.457000", "120104.460000", "120144.376000", "120144.380000", "120144.383000", "120144.386000", "120144.390000", "120144.393000", "120144.396000", "120144.400000", "120144.403000", "120144.406000", "120144.410000", "120144.413000", "120144.416000", "120144.420000", "120144.423000", "120144.426000", "120144.430000", "120144.433000", "120144.436000", "120144.439000", "120144.443000", "120144.446000", "120144.449000", "120144.453000", "120144.456000", "120144.459000", "120144.462000", "120224.376000", "120224.380000", "120224.383000", "120224.387000", "120224.390000", "120224.393000", "120224.397000", "120224.400000", "120224.403000", "120224.406000", "120224.410000", "120224.413000", "120224.416000", "120224.420000", "120224.423000", "120224.426000", "120224.430000", "120224.433000", "120224.436000", "120224.439000", "120224.443000", "120224.446000", "120224.449000", "120224.453000", "120224.456000", "120224.459000", "120224.463000", "120257.044000", "120257.057000", "120257.061000", "120257.064000", "120257.067000", "120257.071000", "120257.074000", "120257.077000", "120257.081000", "120257.084000", "120257.087000", "120257.090000", "120257.094000", "120257.097000", "120257.100000", "120257.104000", "120257.107000", "120257.110000", "120257.113000", "120257.117000", "120257.120000", "120257.123000"],
      "InstanceNumber": [1, 2, 3, 4, 5, 6, 7, 8, 9, 10, 11, 12, 13, 14, 15, 16, 17, 18, 19, 20, 21, 22, 23, 24, 25, 26, 27, 28, 29, 30, 31, 32, 33, 34, 35, 36, 37, 38, 39, 40, 41, 42, 43, 44, 45, 46, 47, 48, 49, 50, 51, 52, 53, 54, 55, 56, 57, 58, 59, 60, 61, 62, 63, 64, 65, 66, 67, 68, 69, 70, 71, 72, 73, 74, 75, 76, 77, 78, 79, 80, 81, 82, 83, 84, 85, 86, 87, 88, 89, 90, 91, 92, 93, 94, 95, 96, 97, 98, 99, 100, 101, 102, 103, 104, 105, 106, 107, 108, 109, 110, 111, 112, 113, 114, 115, 116, 117, 118, 119, 120, 121, 122, 123, 124, 125, 126, 127, 128, 129, 130, 131, 132, 133, 134, 135, 136, 137, 138, 139, 140, 141, 142, 143, 144, 145, 146, 147, 148, 149, 150, 151, 152, 153, 154, 155, 156, 157, 158, 159, 160, 161, 162, 163, 164, 165, 166, 167, 168, 169, 170, 171, 172, 173, 174, 175, 176, 177, 178, 179, 180, 181, 182, 183, 184, 185, 186, 187, 188, 189, 190, 191, 192, 193, 194, 195, 196, 197, 198, 199, 200, 201, 202, 203, 204, 205, 206, 207, 208, 209, 210, 211, 212, 213, 214, 215, 216, 217, 218, 219, 220, 221, 222, 223, 224, 225, 226, 227, 228, 229, 230, 231, 232, 233, 234, 235, 236, 237, 238, 239, 240, 241, 242, 243, 244, 245, 246, 247, 248, 249, 250, 251, 252, 253, 254, 255, 256, 257, 258, 259, 260, 261, 262, 263, 264, 265, 266, 267, 268, 269, 270, 271, 272, 273, 274, 275, 276, 277, 278, 279, 280, 281, 282, 283, 284, 285, 286, 287, 288, 289, 290, 291, 292, 293, 294, 295, 296, 297, 298, 299, 300, 301, 302, 303, 304, 305, 306, 307, 308, 309, 310, 311, 312, 313, 314, 315, 316, 317, 318, 319, 320, 321, 322, 323, 324, 325, 326, 327, 328, 329, 330, 331, 332, 333, 334, 335, 336, 337, 338, 339, 340, 341, 342, 343, 344, 345],
      "LargestImagePixelValue": [47319, 47083, 45204, 44962, 44352, 43925, 44130, 43491, 43021, 42652, 40463, 40687, 40485, 40872, 41079, 40377, 39947, 40507, 39807, 40386, 40338, 40724, 40861, 41722, 40008, 40505, 40942, 40263, 40244, 39941, 39869, 39551, 39979, 40247, 40061, 40048, 40001, 39974, 40291, 39718, 41830, 40811, 40385, 40115, 40165, 40360, 40593, 40288, 40170, 40678, 40571, 40451, 40538, 40985, 40837, 39966, 40777, 40036, 40843, 40365, 41301, 39861, 40331, 42192, 40792, 41004, 40324, 41131, 41013, 41368, 41270, 40649, 42150, 40692, 41313, 41520, 40061, 40924, 40440, 41128, 40722, 40805, 41614, 40644, 40948, 40549, 40699, 40409, 40331, 41173, 41107, 41880, 41175, 40999, 40503, 41915, 40463, 41436, 40533, 40569, 40694, 40801, 40919, 40905, 41679, 40398, 41157, 40744, 40850, 40714, 40302, 41347, 40494, 41087, 40755, 41680, 40654, 42739, 41398, 41588, 42073, 42232, 40757, 41277, 42917, 42196, 41910, 42511, 42471, 42749, 41722, 41669, 41603, 41272, 41179, 41336, 41272, 41687, 40903, 41176, 40849, 41444, 41709, 42452, 41950, 40985, 40974, 41589, 41539, 41349, 41585, 41246, 41720, 41968, 41895, 41351, 41580, 43112, 42265, 41686, 42790, 43046, 42675, 42629, 42592, 41928, 42365, 42520, 42220, 42315, 42390, 41962, 41896, 41281, 41750, 41806, 41742, 41241, 41534, 41364, 41741, 40989, 41179, 42402, 42096, 41335, 41539, 40887, 42640, 41911, 41059, 41626, 40933, 41788, 41737, 41664, 41799, 41359, 42709, 42287, 41643, 41920, 42137, 42759, 42219, 42694, 42983, 43364, 42340, 43736, 42683, 43557, 42893, 43630, 42469, 42947, 42298, 41866, 42086, 41786, 41717, 41980, 42734, 42219, 41485, 42474, 43110, 41846, 42490, 42300, 41771, 42040, 41485, 42615, 41289, 42468, 41602, 41182, 41505, 41866, 41882, 41889, 42127, 41655, 41232, 40967, 41448, 41421, 41269, 41594, 41338, 41320, 41571, 41561, 40960, 41598, 41634, 41574, 41338, 41749, 41483, 41081, 41467, 41444, 41433, 41448, 41503, 41246, 41376, 41185, 40916, 42214, 41539, 42184, 42074, 41735, 41321, 41010, 41844, 42142, 41782, 41514, 41557, 41547, 41054, 41337, 41495, 41093, 41079, 42102, 41429, 41453, 41192, 42601, 41208, 41651, 41126, 41896, 42173, 41906, 41464, 41555, 41271, 41342, 41697, 41201, 42287, 41611, 41422, 42039, 42337, 41923, 42196, 41793, 42175, 42107, 42451, 42082, 42178, 43172, 42097, 42941, 42075, 42501, 42125, 42776, 42124, 42553, 41936, 41317, 41133, 41326, 41349, 41307, 41318, 41437, 41608, 41112, 41115, 40969, 40780, 41172, 41411, 40944, 41282],
